 0.00000000e+00  9.37699156e-02  0.00000000e+00  1.03510622e-04 
 1.00000000e-02  9.43906285e-02  1.00000000e-02  1.03507672e-04 
 2.00000000e-02  9.50939742e-02  2.00000000e-02  1.03504331e-04 
 3.00000000e-02  9.58970644e-02  3.00000000e-02  1.03500519e-04 
 4.00000000e-02  9.68220649e-02  4.00000000e-02  1.03496132e-04 
 5.00000000e-02  9.78981318e-02  5.00000000e-02  1.03491033e-04 
 6.00000000e-02  9.91644132e-02  6.00000000e-02  1.03485040e-04 
 7.00000000e-02  1.00674729e-01  7.00000000e-02  1.03477901e-04 
 8.00000000e-02  1.02504999e-01  8.00000000e-02  1.03469263e-04 
 9.00000000e-02  1.04765307e-01  9.00000000e-02  1.03458616e-04 
 1.00000000e-01  1.07619457e-01  1.00000000e-01  1.03445203e-04 
 1.10000000e-01  1.11314147e-01  1.10000000e-01  1.03427891e-04 
 1.20000000e-01  1.16208078e-01  1.20000000e-01  1.03405047e-04 
 1.30000000e-01  1.22733855e-01  1.30000000e-01  1.03374741e-04 
 1.40000000e-01  1.31123144e-01  1.40000000e-01  1.03336033e-04 
 1.50000000e-01  1.40999833e-01  1.50000000e-01  1.03290827e-04 
 1.60000000e-01  1.51595091e-01  1.60000000e-01  1.03242775e-04 
 1.70000000e-01  1.62349692e-01  1.70000000e-01  1.03194486e-04 
 1.80000000e-01  1.73031357e-01  1.80000000e-01  1.03147036e-04 
 1.90000000e-01  1.83582792e-01  1.90000000e-01  1.03100693e-04 
 2.00000000e-01  1.94011557e-01  2.00000000e-01  1.03055430e-04 
 2.10000000e-01  2.04342053e-01  2.10000000e-01  1.03011143e-04 
 2.20000000e-01  2.14598754e-01  2.20000000e-01  1.02967727e-04 
 2.30000000e-01  2.24801366e-01  2.30000000e-01  1.02925093e-04 
 2.40000000e-01  2.34964545e-01  2.40000000e-01  1.02883176e-04 
 2.50000000e-01  2.45098800e-01  2.50000000e-01  1.02841925e-04 
 2.60000000e-01  2.55211570e-01  2.60000000e-01  1.02801302e-04 
 2.70000000e-01  2.65308221e-01  2.70000000e-01  1.02761277e-04 
 2.80000000e-01  2.75392176e-01  2.80000000e-01  1.02721827e-04 
 2.90000000e-01  2.85466448e-01  2.90000000e-01  1.02682931e-04 
 3.00000000e-01  2.95533253e-01  3.00000000e-01  1.02644571e-04 
 3.10000000e-01  3.05592972e-01  3.10000000e-01  1.02606738e-04 
 3.20000000e-01  3.15647776e-01  3.20000000e-01  1.02569412e-04 
 3.30000000e-01  3.25698145e-01  3.30000000e-01  1.02532583e-04 
 3.40000000e-01  3.35744733e-01  3.40000000e-01  1.02496240e-04 
 3.50000000e-01  3.45788054e-01  3.50000000e-01  1.02460371e-04 
 3.60000000e-01  3.55828523e-01  3.60000000e-01  1.02424966e-04 
 3.70000000e-01  3.65866474e-01  3.70000000e-01  1.02390015e-04 
 3.80000000e-01  3.75902187e-01  3.80000000e-01  1.02355507e-04 
 3.90000000e-01  3.85935893e-01  3.90000000e-01  1.02321434e-04 
 4.00000000e-01  3.95967785e-01  4.00000000e-01  1.02287786e-04 
 4.10000000e-01  4.05998033e-01  4.10000000e-01  1.02254554e-04 
 4.20000000e-01  4.16026778e-01  4.20000000e-01  1.02221729e-04 
 4.30000000e-01  4.26054147e-01  4.30000000e-01  1.02189303e-04 
 4.40000000e-01  4.36080247e-01  4.40000000e-01  1.02157266e-04 
 4.50000000e-01  4.46105174e-01  4.50000000e-01  1.02125610e-04 
 4.60000000e-01  4.56129015e-01  4.60000000e-01  1.02094328e-04 
 4.70000000e-01  4.66151846e-01  4.70000000e-01  1.02063410e-04 
 4.80000000e-01  4.76173734e-01  4.80000000e-01  1.02032850e-04 
 4.90000000e-01  4.86194741e-01  4.90000000e-01  1.02002639e-04 
 5.00000000e-01  4.96214923e-01  5.00000000e-01  1.01972770e-04 
 5.10000000e-01  5.06234330e-01  5.10000000e-01  1.01943234e-04 
 5.20000000e-01  5.16253010e-01  5.20000000e-01  1.01914025e-04 
 5.30000000e-01  5.26271003e-01  5.30000000e-01  1.01885135e-04 
 5.40000000e-01  5.36288348e-01  5.40000000e-01  1.01856557e-04 
 5.50000000e-01  5.46305082e-01  5.50000000e-01  1.01828284e-04 
 5.60000000e-01  5.56321238e-01  5.60000000e-01  1.01800309e-04 
 5.70000000e-01  5.66336845e-01  5.70000000e-01  1.01772625e-04 
 5.80000000e-01  5.76351931e-01  5.80000000e-01  1.01745225e-04 
 5.90000000e-01  5.86366524e-01  5.90000000e-01  1.01718102e-04 
 6.00000000e-01  5.96380648e-01  6.00000000e-01  1.01691250e-04 
 6.10000000e-01  6.06394325e-01  6.10000000e-01  1.01664662e-04 
 6.20000000e-01  6.16407576e-01  6.20000000e-01  1.01638333e-04 
 6.30000000e-01  6.26420421e-01  6.30000000e-01  1.01612255e-04 
 6.40000000e-01  6.36432879e-01  6.40000000e-01  1.01586423e-04 
 6.50000000e-01  6.46444968e-01  6.50000000e-01  1.01560831e-04 
 6.60000000e-01  6.56456703e-01  6.60000000e-01  1.01535472e-04 
 6.70000000e-01  6.66468100e-01  6.70000000e-01  1.01510341e-04 
 6.80000000e-01  6.76479173e-01  6.80000000e-01  1.01485431e-04 
 6.90000000e-01  6.86489937e-01  6.90000000e-01  1.01460738e-04 
 7.00000000e-01  6.96500403e-01  7.00000000e-01  1.01436255e-04 
 7.10000000e-01  7.06510585e-01  7.10000000e-01  1.01411977e-04 
 7.20000000e-01  7.16520493e-01  7.20000000e-01  1.01387899e-04 
 7.30000000e-01  7.26530139e-01  7.30000000e-01  1.01364015e-04 
 7.40000000e-01  7.36539532e-01  7.40000000e-01  1.01340321e-04 
 7.50000000e-01  7.46548683e-01  7.50000000e-01  1.01316810e-04 
 7.60000000e-01  7.56557600e-01  7.60000000e-01  1.01293478e-04 
 7.70000000e-01  7.66566293e-01  7.70000000e-01  1.01270319e-04 
 7.80000000e-01  7.76574770e-01  7.80000000e-01  1.01247330e-04 
 7.90000000e-01  7.86583038e-01  7.90000000e-01  1.01224504e-04 
 8.00000000e-01  7.96591105e-01  8.00000000e-01  1.01201838e-04 
 8.10000000e-01  8.06598979e-01  8.10000000e-01  1.01179326e-04 
 8.20000000e-01  8.16606666e-01  8.20000000e-01  1.01156964e-04 
 8.30000000e-01  8.26614173e-01  8.30000000e-01  1.01134748e-04 
 8.40000000e-01  8.36621506e-01  8.40000000e-01  1.01112673e-04 
 8.50000000e-01  8.46628671e-01  8.50000000e-01  1.01090734e-04 
 8.60000000e-01  8.56635673e-01  8.60000000e-01  1.01068928e-04 
 8.70000000e-01  8.66642518e-01  8.70000000e-01  1.01047250e-04 
 8.80000000e-01  8.76649211e-01  8.80000000e-01  1.01025696e-04 
 8.90000000e-01  8.86655757e-01  8.90000000e-01  1.01004262e-04 
 9.00000000e-01  8.96662160e-01  9.00000000e-01  1.00982944e-04 
 9.10000000e-01  9.06668426e-01  9.10000000e-01  1.00961738e-04 
 9.20000000e-01  9.16674559e-01  9.20000000e-01  1.00940639e-04 
 9.30000000e-01  9.26680562e-01  9.30000000e-01  1.00919646e-04 
 9.40000000e-01  9.36686440e-01  9.40000000e-01  1.00898753e-04 
 9.50000000e-01  9.46692197e-01  9.50000000e-01  1.00877957e-04 
 9.60000000e-01  9.56697835e-01  9.60000000e-01  1.00857254e-04 
 9.70000000e-01  9.66703360e-01  9.70000000e-01  1.00836641e-04 
 9.80000000e-01  9.76708773e-01  9.80000000e-01  1.00816114e-04 
 9.90000000e-01  9.86714079e-01  9.90000000e-01  1.00795671e-04 
 1.00000000e+00  9.96719280e-01  1.00000000e+00  1.00775307e-04 
 1.01000000e+00  1.00672438e+00  1.01000000e+00  1.00755019e-04 
 1.02000000e+00  1.01672938e+00  1.02000000e+00  1.00734804e-04 
 1.03000000e+00  1.02673429e+00  1.03000000e+00  1.00714660e-04 
 1.04000000e+00  1.03673910e+00  1.04000000e+00  1.00694582e-04 
 1.05000000e+00  1.04674382e+00  1.05000000e+00  1.00674568e-04 
 1.06000000e+00  1.05674845e+00  1.06000000e+00  1.00654615e-04 
 1.07000000e+00  1.06675300e+00  1.07000000e+00  1.00634719e-04 
 1.08000000e+00  1.07675747e+00  1.08000000e+00  1.00614879e-04 
 1.09000000e+00  1.08676185e+00  1.09000000e+00  1.00595091e-04 
 1.10000000e+00  1.09676615e+00  1.10000000e+00  1.00575352e-04 
 1.11000000e+00  1.10677038e+00  1.11000000e+00  1.00555660e-04 
 1.12000000e+00  1.11677453e+00  1.12000000e+00  1.00536012e-04 
 1.13000000e+00  1.12677861e+00  1.13000000e+00  1.00516405e-04 
 1.14000000e+00  1.13678262e+00  1.14000000e+00  1.00496837e-04 
 1.15000000e+00  1.14678656e+00  1.15000000e+00  1.00477306e-04 
 1.16000000e+00  1.15679043e+00  1.16000000e+00  1.00457808e-04 
 1.17000000e+00  1.16679423e+00  1.17000000e+00  1.00438342e-04 
 1.18000000e+00  1.17679797e+00  1.18000000e+00  1.00418904e-04 
 1.19000000e+00  1.18680165e+00  1.19000000e+00  1.00399494e-04 
 1.20000000e+00  1.19680527e+00  1.20000000e+00  1.00380108e-04 
 1.21000000e+00  1.20680882e+00  1.21000000e+00  1.00360744e-04 
 1.22000000e+00  1.21681232e+00  1.22000000e+00  1.00341399e-04 
 1.23000000e+00  1.22681576e+00  1.23000000e+00  1.00322073e-04 
 1.24000000e+00  1.23681915e+00  1.24000000e+00  1.00302763e-04 
 1.25000000e+00  1.24682248e+00  1.25000000e+00  1.00283466e-04 
 1.26000000e+00  1.25682576e+00  1.26000000e+00  1.00264181e-04 
 1.27000000e+00  1.26682899e+00  1.27000000e+00  1.00244905e-04 
 1.28000000e+00  1.27683217e+00  1.28000000e+00  1.00225637e-04 
 1.29000000e+00  1.28683529e+00  1.29000000e+00  1.00206374e-04 
 1.30000000e+00  1.29683837e+00  1.30000000e+00  1.00187116e-04 
 1.31000000e+00  1.30684140e+00  1.31000000e+00  1.00167859e-04 
 1.32000000e+00  1.31684439e+00  1.32000000e+00  1.00148603e-04 
 1.33000000e+00  1.32684733e+00  1.33000000e+00  1.00129345e-04 
 1.34000000e+00  1.33685023e+00  1.34000000e+00  1.00110084e-04 
 1.35000000e+00  1.34685308e+00  1.35000000e+00  1.00090817e-04 
 1.36000000e+00  1.35685589e+00  1.36000000e+00  1.00071544e-04 
 1.37000000e+00  1.36685866e+00  1.37000000e+00  1.00052263e-04 
 1.38000000e+00  1.37686139e+00  1.38000000e+00  1.00032972e-04 
 1.39000000e+00  1.38686408e+00  1.39000000e+00  1.00013669e-04 
 1.40000000e+00  1.39686673e+00  1.40000000e+00  9.99943527e-05 
 1.41000000e+00  1.40686935e+00  1.41000000e+00  9.99750220e-05 
 1.42000000e+00  1.41687192e+00  1.42000000e+00  9.99556752e-05 
 1.43000000e+00  1.42687446e+00  1.43000000e+00  9.99363108e-05 
 1.44000000e+00  1.43687697e+00  1.44000000e+00  9.99169274e-05 
 1.45000000e+00  1.44687944e+00  1.45000000e+00  9.98975235e-05 
 1.46000000e+00  1.45688187e+00  1.46000000e+00  9.98780977e-05 
 1.47000000e+00  1.46688427e+00  1.47000000e+00  9.98586488e-05 
 1.48000000e+00  1.47688664e+00  1.48000000e+00  9.98391753e-05 
 1.49000000e+00  1.48688898e+00  1.49000000e+00  9.98196760e-05 
 1.50000000e+00  1.49689129e+00  1.50000000e+00  9.98001495e-05 
 1.51000000e+00  1.50689356e+00  1.51000000e+00  9.97805945e-05 
 1.52000000e+00  1.51689581e+00  1.52000000e+00  9.97610099e-05 
 1.53000000e+00  1.52689802e+00  1.53000000e+00  9.97413943e-05 
 1.54000000e+00  1.53690021e+00  1.54000000e+00  9.97217467e-05 
 1.55000000e+00  1.54690530e+00  1.55000000e+00  9.97020600e-05 
 1.56000000e+00  1.55690449e+00  1.56000000e+00  9.96823502e-05 
 1.57000000e+00  1.56690660e+00  1.57000000e+00  9.96625991e-05 
 1.58000000e+00  1.57690867e+00  1.58000000e+00  9.96428112e-05 
 1.59000000e+00  1.58691072e+00  1.59000000e+00  9.96229854e-05 
 1.60000000e+00  1.59691274e+00  1.60000000e+00  9.96031207e-05 
 1.61000000e+00  1.60691474e+00  1.61000000e+00  9.95832158e-05 
 1.62000000e+00  1.61691672e+00  1.62000000e+00  9.95632698e-05 
 1.63000000e+00  1.62691866e+00  1.63000000e+00  9.95432816e-05 
 1.64000000e+00  1.63692059e+00  1.64000000e+00  9.95232501e-05 
 1.65000000e+00  1.64692249e+00  1.65000000e+00  9.95031744e-05 
 1.66000000e+00  1.65692437e+00  1.66000000e+00  9.94830533e-05 
 1.67000000e+00  1.66692623e+00  1.67000000e+00  9.94628860e-05 
 1.68000000e+00  1.67692806e+00  1.68000000e+00  9.94426713e-05 
 1.69000000e+00  1.68692987e+00  1.69000000e+00  9.94224084e-05 
 1.70000000e+00  1.69693166e+00  1.70000000e+00  9.94020963e-05 
 1.71000000e+00  1.70693343e+00  1.71000000e+00  9.93817339e-05 
 1.72000000e+00  1.71693518e+00  1.72000000e+00  9.93613204e-05 
 1.73000000e+00  1.72693691e+00  1.73000000e+00  9.93408549e-05 
 1.74000000e+00  1.73693862e+00  1.74000000e+00  9.93203362e-05 
 1.75000000e+00  1.74694031e+00  1.75000000e+00  9.92997637e-05 
 1.76000000e+00  1.75694198e+00  1.76000000e+00  9.92791363e-05 
 1.77000000e+00  1.76694363e+00  1.77000000e+00  9.92584531e-05 
 1.78000000e+00  1.77694526e+00  1.78000000e+00  9.92377132e-05 
 1.79000000e+00  1.78694687e+00  1.79000000e+00  9.92169157e-05 
 1.80000000e+00  1.79694847e+00  1.80000000e+00  9.91960598e-05 
 1.81000000e+00  1.80695005e+00  1.81000000e+00  9.91751445e-05 
 1.82000000e+00  1.81695161e+00  1.82000000e+00  9.91541690e-05 
 1.83000000e+00  1.82695316e+00  1.83000000e+00  9.91331324e-05 
 1.84000000e+00  1.83695468e+00  1.84000000e+00  9.91120337e-05 
 1.85000000e+00  1.84695620e+00  1.85000000e+00  9.90908722e-05 
 1.86000000e+00  1.85695769e+00  1.86000000e+00  9.90696469e-05 
 1.87000000e+00  1.86695917e+00  1.87000000e+00  9.90483571e-05 
 1.88000000e+00  1.87696064e+00  1.88000000e+00  9.90270017e-05 
 1.89000000e+00  1.88696209e+00  1.89000000e+00  9.90055800e-05 
 1.90000000e+00  1.89696352e+00  1.90000000e+00  9.89840911e-05 
 1.91000000e+00  1.90696494e+00  1.91000000e+00  9.89625342e-05 
 1.92000000e+00  1.91696635e+00  1.92000000e+00  9.89409082e-05 
 1.93000000e+00  1.92696774e+00  1.93000000e+00  9.89192125e-05 
 1.94000000e+00  1.93696909e+00  1.94000000e+00  9.88974461e-05 
 1.95000000e+00  1.94697048e+00  1.95000000e+00  9.88756081e-05 
 1.96000000e+00  1.95697183e+00  1.96000000e+00  9.88536976e-05 
 1.97000000e+00  1.96697317e+00  1.97000000e+00  9.88317139e-05 
 1.98000000e+00  1.97697449e+00  1.98000000e+00  9.88096560e-05 
 1.99000000e+00  1.98697580e+00  1.99000000e+00  9.87875230e-05 
 2.00000000e+00  1.99697710e+00  2.00000000e+00  9.87653140e-05 
 2.01000000e+00  2.00697839e+00  2.01000000e+00  9.87430282e-05 
 2.02000000e+00  2.01697966e+00  2.02000000e+00  9.87206647e-05 
 2.03000000e+00  2.02698092e+00  2.03000000e+00  9.86982224e-05 
 2.04000000e+00  2.03698217e+00  2.04000000e+00  9.86757006e-05 
 2.05000000e+00  2.04698341e+00  2.05000000e+00  9.86530984e-05 
 2.06000000e+00  2.05698464e+00  2.06000000e+00  9.86304147e-05 
 2.07000000e+00  2.06698586e+00  2.07000000e+00  9.86076486e-05 
 2.08000000e+00  2.07698706e+00  2.08000000e+00  9.85847993e-05 
 2.09000000e+00  2.08698826e+00  2.09000000e+00  9.85618657e-05 
 2.10000000e+00  2.09698944e+00  2.10000000e+00  9.85388470e-05 
 2.11000000e+00  2.10699062e+00  2.11000000e+00  9.85157421e-05 
 2.12000000e+00  2.11699178e+00  2.12000000e+00  9.84925500e-05 
 2.13000000e+00  2.12699293e+00  2.13000000e+00  9.84692699e-05 
 2.14000000e+00  2.13699408e+00  2.14000000e+00  9.84459006e-05 
 2.15000000e+00  2.14699521e+00  2.15000000e+00  9.84224411e-05 
 2.16000000e+00  2.15699634e+00  2.16000000e+00  9.83988905e-05 
 2.17000000e+00  2.16699745e+00  2.17000000e+00  9.83752478e-05 
 2.18000000e+00  2.17699856e+00  2.18000000e+00  9.83515118e-05 
 2.19000000e+00  2.18699966e+00  2.19000000e+00  9.83276815e-05 
 2.20000000e+00  2.19700074e+00  2.20000000e+00  9.83037558e-05 
 2.21000000e+00  2.20700182e+00  2.21000000e+00  9.82797336e-05 
 2.22000000e+00  2.21700290e+00  2.22000000e+00  9.82556139e-05 
 2.23000000e+00  2.22700396e+00  2.23000000e+00  9.82313955e-05 
 2.24000000e+00  2.23700501e+00  2.24000000e+00  9.82070773e-05 
 2.25000000e+00  2.24700606e+00  2.25000000e+00  9.81826580e-05 
 2.26000000e+00  2.25700710e+00  2.26000000e+00  9.81581366e-05 
 2.27000000e+00  2.26700813e+00  2.27000000e+00  9.81335119e-05 
 2.28000000e+00  2.27700915e+00  2.28000000e+00  9.81087827e-05 
 2.29000000e+00  2.28701017e+00  2.29000000e+00  9.80839476e-05 
 2.30000000e+00  2.29701118e+00  2.30000000e+00  9.80590055e-05 
 2.31000000e+00  2.30701218e+00  2.31000000e+00  9.80339551e-05 
 2.32000000e+00  2.31701317e+00  2.32000000e+00  9.80087952e-05 
 2.33000000e+00  2.32701416e+00  2.33000000e+00  9.79835243e-05 
 2.34000000e+00  2.33701514e+00  2.34000000e+00  9.79581412e-05 
 2.35000000e+00  2.34701611e+00  2.35000000e+00  9.79326446e-05 
 2.36000000e+00  2.35701708e+00  2.36000000e+00  9.79070329e-05 
 2.37000000e+00  2.36701804e+00  2.37000000e+00  9.78813049e-05 
 2.38000000e+00  2.37701899e+00  2.38000000e+00  9.78554591e-05 
 2.39000000e+00  2.38701994e+00  2.39000000e+00  9.78294940e-05 
 2.40000000e+00  2.39702594e+00  2.40000000e+00  9.78033947e-05 
 2.41000000e+00  2.40702182e+00  2.41000000e+00  9.77772001e-05 
 2.42000000e+00  2.41702275e+00  2.42000000e+00  9.77508682e-05 
 2.43000000e+00  2.42702368e+00  2.43000000e+00  9.77244110e-05 
 2.44000000e+00  2.43702460e+00  2.44000000e+00  9.76978267e-05 
 2.45000000e+00  2.44702551e+00  2.45000000e+00  9.76711139e-05 
 2.46000000e+00  2.45702642e+00  2.46000000e+00  9.76442707e-05 
 2.47000000e+00  2.46702732e+00  2.47000000e+00  9.76172956e-05 
 2.48000000e+00  2.47702822e+00  2.48000000e+00  9.75901868e-05 
 2.49000000e+00  2.48702911e+00  2.49000000e+00  9.75629425e-05 
 2.50000000e+00  2.49703000e+00  2.50000000e+00  9.75355608e-05 
 2.51000000e+00  2.50703089e+00  2.51000000e+00  9.75080401e-05 
 2.52000000e+00  2.51703177e+00  2.52000000e+00  9.74803783e-05 
 2.53000000e+00  2.52703264e+00  2.53000000e+00  9.74525735e-05 
 2.54000000e+00  2.53703351e+00  2.54000000e+00  9.74246238e-05 
 2.55000000e+00  2.54703438e+00  2.55000000e+00  9.73965272e-05 
 2.56000000e+00  2.55703524e+00  2.56000000e+00  9.73682815e-05 
 2.57000000e+00  2.56703610e+00  2.57000000e+00  9.73398848e-05 
 2.58000000e+00  2.57703695e+00  2.58000000e+00  9.73113348e-05 
 2.59000000e+00  2.58703780e+00  2.59000000e+00  9.72826293e-05 
 2.60000000e+00  2.59703865e+00  2.60000000e+00  9.72537661e-05 
 2.61000000e+00  2.60703949e+00  2.61000000e+00  9.72247429e-05 
 2.62000000e+00  2.61704033e+00  2.62000000e+00  9.71955573e-05 
 2.63000000e+00  2.62704117e+00  2.63000000e+00  9.71662069e-05 
 2.64000000e+00  2.63704200e+00  2.64000000e+00  9.71366892e-05 
 2.65000000e+00  2.64704283e+00  2.65000000e+00  9.71070017e-05 
 2.66000000e+00  2.65704366e+00  2.66000000e+00  9.70771417e-05 
 2.67000000e+00  2.66704448e+00  2.67000000e+00  9.70471067e-05 
 2.68000000e+00  2.67704530e+00  2.68000000e+00  9.70168938e-05 
 2.69000000e+00  2.68704612e+00  2.69000000e+00  9.69865003e-05 
 2.70000000e+00  2.69704694e+00  2.70000000e+00  9.69559233e-05 
 2.71000000e+00  2.70704775e+00  2.71000000e+00  9.69251598e-05 
 2.72000000e+00  2.71704856e+00  2.72000000e+00  9.68942068e-05 
 2.73000000e+00  2.72704937e+00  2.73000000e+00  9.68630612e-05 
 2.74000000e+00  2.73705018e+00  2.74000000e+00  9.68317197e-05 
 2.75000000e+00  2.74703919e+00  2.75000000e+00  9.68001928e-05 
 2.76000000e+00  2.75705179e+00  2.76000000e+00  9.67684361e-05 
 2.77000000e+00  2.76705259e+00  2.77000000e+00  9.67364870e-05 
 2.78000000e+00  2.77705339e+00  2.78000000e+00  9.67043284e-05 
 2.79000000e+00  2.78705419e+00  2.79000000e+00  9.66719566e-05 
 2.80000000e+00  2.79705498e+00  2.80000000e+00  9.66393677e-05 
 2.81000000e+00  2.80705578e+00  2.81000000e+00  9.66065579e-05 
 2.82000000e+00  2.81705657e+00  2.82000000e+00  9.65735231e-05 
 2.83000000e+00  2.82705737e+00  2.83000000e+00  9.65402593e-05 
 2.84000000e+00  2.83705816e+00  2.84000000e+00  9.65067620e-05 
 2.85000000e+00  2.84705895e+00  2.85000000e+00  9.64730269e-05 
 2.86000000e+00  2.85705974e+00  2.86000000e+00  9.64390495e-05 
 2.87000000e+00  2.86706053e+00  2.87000000e+00  9.64048251e-05 
 2.88000000e+00  2.87706133e+00  2.88000000e+00  9.63703487e-05 
 2.89000000e+00  2.88706212e+00  2.89000000e+00  9.63356153e-05 
 2.90000000e+00  2.89706291e+00  2.90000000e+00  9.63006199e-05 
 2.91000000e+00  2.90706370e+00  2.91000000e+00  9.62653569e-05 
 2.92000000e+00  2.91706449e+00  2.92000000e+00  9.62298209e-05 
 2.93000000e+00  2.92706528e+00  2.93000000e+00  9.61940060e-05 
 2.94000000e+00  2.93706568e+00  2.94000000e+00  9.61579071e-05 
 2.95000000e+00  2.94706687e+00  2.95000000e+00  9.61215157e-05 
 2.96000000e+00  2.95706766e+00  2.96000000e+00  9.60848276e-05 
 2.97000000e+00  2.96706846e+00  2.97000000e+00  9.60478354e-05 
 2.98000000e+00  2.97706926e+00  2.98000000e+00  9.60105322e-05 
 2.99000000e+00  2.98707006e+00  2.99000000e+00  9.59729107e-05 
 3.00000000e+00  2.99707086e+00  3.00000000e+00  9.59349634e-05 
 3.01000000e+00  3.00707166e+00  3.01000000e+00  9.58966825e-05 
 3.02000000e+00  3.01707205e+00  3.02000000e+00  9.58580606e-05 
 3.03000000e+00  3.02707327e+00  3.03000000e+00  9.58190868e-05 
 3.04000000e+00  3.03707408e+00  3.04000000e+00  9.57797547e-05 
 3.05000000e+00  3.04707490e+00  3.05000000e+00  9.57400540e-05 
 3.06000000e+00  3.05707572e+00  3.06000000e+00  9.56999751e-05 
 3.07000000e+00  3.06707654e+00  3.07000000e+00  9.56595078e-05 
 3.08000000e+00  3.07707741e+00  3.08000000e+00  9.56186412e-05 
 3.09000000e+00  3.08707819e+00  3.09000000e+00  9.55773646e-05 
 3.10000000e+00  3.09708122e+00  3.10000000e+00  9.55356573e-05 
 3.11000000e+00  3.10707986e+00  3.11000000e+00  9.54935320e-05 
 3.12000000e+00  3.11708071e+00  3.12000000e+00  9.54509506e-05 
 3.13000000e+00  3.12708156e+00  3.13000000e+00  9.54079075e-05 
 3.14000000e+00  3.13708242e+00  3.14000000e+00  9.53643881e-05 
 3.15000000e+00  3.14708470e+00  3.15000000e+00  9.53203712e-05 
 3.16000000e+00  3.15708415e+00  3.16000000e+00  9.52758571e-05 
 3.17000000e+00  3.16708503e+00  3.17000000e+00  9.52308114e-05 
 3.18000000e+00  3.17708591e+00  3.18000000e+00  9.51852210e-05 
 3.19000000e+00  3.18708681e+00  3.19000000e+00  9.51390658e-05 
 3.20000000e+00  3.19708772e+00  3.20000000e+00  9.50923243e-05 
 3.21000000e+00  3.20707606e+00  3.21000000e+00  9.50449998e-05 
 3.22000000e+00  3.21708956e+00  3.22000000e+00  9.49969886e-05 
 3.23000000e+00  3.22709050e+00  3.23000000e+00  9.49483426e-05 
 3.24000000e+00  3.23709100e+00  3.24000000e+00  9.48990075e-05 
 3.25000000e+00  3.24709242e+00  3.25000000e+00  9.48489488e-05 
 3.26000000e+00  3.25709340e+00  3.26000000e+00  9.47981347e-05 
 3.27000000e+00  3.26709440e+00  3.27000000e+00  9.47465266e-05 
 3.28000000e+00  3.27709541e+00  3.28000000e+00  9.46940827e-05 
 3.29000000e+00  3.28709645e+00  3.29000000e+00  9.46407571e-05 
 3.30000000e+00  3.29709750e+00  3.30000000e+00  9.45864987e-05 
 3.31000000e+00  3.30709858e+00  3.31000000e+00  9.45312505e-05 
 3.32000000e+00  3.31709969e+00  3.32000000e+00  9.44749488e-05 
 3.33000000e+00  3.32710082e+00  3.33000000e+00  9.44175215e-05 
 3.34000000e+00  3.33711831e+00  3.34000000e+00  9.43588088e-05 
 3.35000000e+00  3.34710319e+00  3.35000000e+00  9.42989527e-05 
 3.36000000e+00  3.35710442e+00  3.36000000e+00  9.42376119e-05 
 3.37000000e+00  3.36709068e+00  3.37000000e+00  9.41747764e-05 
 3.38000000e+00  3.37710703e+00  3.38000000e+00  9.41102005e-05 
 3.39000000e+00  3.38710841e+00  3.39000000e+00  9.40438220e-05 
 3.40000000e+00  3.39710985e+00  3.40000000e+00  9.39754125e-05 
 3.41000000e+00  3.40711050e+00  3.41000000e+00  9.39047456e-05 
 3.42000000e+00  3.41711295e+00  3.42000000e+00  9.38315460e-05 
 3.43000000e+00  3.42711463e+00  3.43000000e+00  9.37555005e-05 
 3.44000000e+00  3.43711642e+00  3.44000000e+00  9.36762289e-05 
 3.45000000e+00  3.44711833e+00  3.45000000e+00  9.35932829e-05 
 3.46000000e+00  3.45712038e+00  3.46000000e+00  9.35061321e-05 
 3.47000000e+00  3.46712260e+00  3.47000000e+00  9.34141522e-05 
 3.48000000e+00  3.47712500e+00  3.48000000e+00  9.33166141e-05 
 3.49000000e+00  3.48712763e+00  3.49000000e+00  9.32126751e-05 
 3.50000000e+00  3.49713053e+00  3.50000000e+00  9.31013759e-05 
 3.51000000e+00  3.50713374e+00  3.51000000e+00  9.29816443e-05 
 3.52000000e+00  3.51713738e+00  3.52000000e+00  9.28523086e-05 
 3.53000000e+00  3.52714122e+00  3.53000000e+00  9.27121239e-05 
 3.54000000e+00  3.53714560e+00  3.54000000e+00  9.25598039e-05 
 3.55000000e+00  3.54715048e+00  3.55000000e+00  9.23940671e-05 
 3.56000000e+00  3.55715590e+00  3.56000000e+00  9.22136810e-05 
 3.57000000e+00  3.56716110e+00  3.57000000e+00  9.20175086e-05 
 3.58000000e+00  3.57716769e+00  3.58000000e+00  9.18045357e-05 
 3.59000000e+00  3.58717584e+00  3.59000000e+00  9.15739064e-05 
 3.60000000e+00  3.59718384e+00  3.60000000e+00  9.13249373e-05 
 3.61000000e+00  3.60719256e+00  3.61000000e+00  9.10571077e-05 
 3.62000000e+00  3.61720202e+00  3.62000000e+00  9.07700617e-05 
 3.63000000e+00  3.62721223e+00  3.63000000e+00  9.04635941e-05 
 3.64000000e+00  3.63722185e+00  3.64000000e+00  9.01376380e-05 
 3.65000000e+00  3.64723497e+00  3.65000000e+00  8.97922303e-05 
 3.66000000e+00  3.65724592e+00  3.66000000e+00  8.94275383e-05 
 3.67000000e+00  3.66726084e+00  3.67000000e+00  8.90437857e-05 
 3.68000000e+00  3.67727495e+00  3.68000000e+00  8.86413045e-05 
 3.69000000e+00  3.68728985e+00  3.69000000e+00  8.82204770e-05 
 3.70000000e+00  3.69730555e+00  3.70000000e+00  8.77817503e-05 
 3.71000000e+00  3.70732203e+00  3.71000000e+00  8.73256275e-05 
 3.72000000e+00  3.71733929e+00  3.72000000e+00  8.68526622e-05 
 3.73000000e+00  3.72735736e+00  3.73000000e+00  8.63634555e-05 
 3.74000000e+00  3.73737623e+00  3.74000000e+00  8.58586567e-05 
 3.75000000e+00  3.74739590e+00  3.75000000e+00  8.53389617e-05 
 3.76000000e+00  3.75741353e+00  3.76000000e+00  8.48051222e-05 
 3.77000000e+00  3.76743768e+00  3.77000000e+00  8.42579041e-05 
 3.78000000e+00  3.77745981e+00  3.78000000e+00  8.36981760e-05 
 3.79000000e+00  3.78748279e+00  3.79000000e+00  8.31268247e-05 
 3.80000000e+00  3.79748938e+00  3.80000000e+00  8.25448586e-05 
 3.81000000e+00  3.80753131e+00  3.81000000e+00  8.19531265e-05 
 3.82000000e+00  3.81755691e+00  3.82000000e+00  8.13528691e-05 
 3.83000000e+00  3.82758344e+00  3.83000000e+00  8.07451786e-05 
 3.84000000e+00  3.83761093e+00  3.84000000e+00  8.01312746e-05 
 3.85000000e+00  3.84763939e+00  3.85000000e+00  7.95124573e-05 
 3.86000000e+00  3.85766889e+00  3.86000000e+00  7.88901077e-05 
 3.87000000e+00  3.86769946e+00  3.87000000e+00  7.82656969e-05 
 3.88000000e+00  3.87773116e+00  3.88000000e+00  7.76407882e-05 
 3.89000000e+00  3.88774045e+00  3.89000000e+00  7.70170844e-05 
 3.90000000e+00  3.89779816e+00  3.90000000e+00  7.63962134e-05 
 3.91000000e+00  3.90783361e+00  3.91000000e+00  7.57801606e-05 
 3.92000000e+00  3.91787044e+00  3.92000000e+00  7.51708348e-05 
 3.93000000e+00  3.92790874e+00  3.93000000e+00  7.45702773e-05 
 3.94000000e+00  3.93794525e+00  3.94000000e+00  7.39806202e-05 
 3.95000000e+00  3.94799007e+00  3.95000000e+00  7.34040095e-05 
 3.96000000e+00  3.95803308e+00  3.96000000e+00  7.28427011e-05 
 3.97000000e+00  3.96807830e+00  3.97000000e+00  7.22989020e-05 
 3.98000000e+00  3.97812508e+00  3.98000000e+00  7.17748102e-05 
 3.99000000e+00  3.98817381e+00  3.99000000e+00  7.12725137e-05 
 4.00000000e+00  3.99822443e+00  4.00000000e+00  7.07939642e-05 
 4.01000000e+00  4.00827695e+00  4.01000000e+00  7.03408944e-05 
 4.02000000e+00  4.01833128e+00  4.02000000e+00  6.99147510e-05 
 4.03000000e+00  4.02838731e+00  4.03000000e+00  6.95166285e-05 
 4.04000000e+00  4.03844488e+00  4.04000000e+00  6.91472111e-05 
 4.05000000e+00  4.04850347e+00  4.05000000e+00  6.88067337e-05 
 4.06000000e+00  4.05856369e+00  4.06000000e+00  6.84949578e-05 
 4.07000000e+00  4.06862436e+00  4.07000000e+00  6.82111923e-05 
 4.08000000e+00  4.07868548e+00  4.08000000e+00  6.79543177e-05 
 4.09000000e+00  4.08874674e+00  4.09000000e+00  6.77228520e-05 
 4.10000000e+00  4.09880711e+00  4.10000000e+00  6.75150311e-05 
 4.11000000e+00  4.10873081e+00  4.11000000e+00  6.73294832e-05 
 4.12000000e+00  4.11892931e+00  4.12000000e+00  6.71623228e-05 
 4.13000000e+00  4.12898940e+00  4.13000000e+00  6.70132527e-05 
 4.14000000e+00  4.13904915e+00  4.14000000e+00  6.68795926e-05 
 4.15000000e+00  4.14910870e+00  4.15000000e+00  6.67593580e-05 
 4.16000000e+00  4.15916824e+00  4.16000000e+00  6.66506917e-05 
 4.17000000e+00  4.16922802e+00  4.17000000e+00  6.65518889e-05 
 4.18000000e+00  4.17928619e+00  4.18000000e+00  6.64614189e-05 
 4.19000000e+00  4.18934933e+00  4.19000000e+00  6.63778768e-05 
 4.20000000e+00  4.19941136e+00  4.20000000e+00  6.63000819e-05 
 4.21000000e+00  4.20947462e+00  4.21000000e+00  6.62269656e-05 
 4.22000000e+00  4.21953931e+00  4.22000000e+00  6.61576107e-05 
 4.23000000e+00  4.22956137e+00  4.23000000e+00  6.60914621e-05 
 4.24000000e+00  4.23967374e+00  4.24000000e+00  6.60271385e-05 
 4.25000000e+00  4.24974382e+00  4.25000000e+00  6.59647658e-05 
 4.26000000e+00  4.25981605e+00  4.26000000e+00  6.59036162e-05 
 4.27000000e+00  4.26989061e+00  4.27000000e+00  6.58432689e-05 
 4.28000000e+00  4.27996775e+00  4.28000000e+00  6.57833642e-05 
 4.29000000e+00  4.29004775e+00  4.29000000e+00  6.57235933e-05 
 4.30000000e+00  4.30013096e+00  4.30000000e+00  6.56636890e-05 
 4.31000000e+00  4.31021781e+00  4.31000000e+00  6.56034175e-05 
 4.32000000e+00  4.32030886e+00  4.32000000e+00  6.55425713e-05 
 4.33000000e+00  4.33040480e+00  4.33000000e+00  6.54809630e-05 
 4.34000000e+00  4.34033814e+00  4.34000000e+00  6.54195431e-05 
 4.35000000e+00  4.35061505e+00  4.35000000e+00  6.53547757e-05 
 4.36000000e+00  4.36073184e+00  4.36000000e+00  6.52898719e-05 
 4.37000000e+00  4.37085863e+00  4.37000000e+00  6.52235466e-05 
 4.38000000e+00  4.38099761e+00  4.38000000e+00  6.51556328e-05 
 4.39000000e+00  4.39115156e+00  4.39000000e+00  6.50859523e-05 
 4.40000000e+00  4.40132402e+00  4.40000000e+00  6.50143101e-05 
 4.41000000e+00  4.41151945e+00  4.41000000e+00  6.49404869e-05 
 4.42000000e+00  4.42170560e+00  4.42000000e+00  6.48645573e-05 
 4.43000000e+00  4.43200330e+00  4.43000000e+00  6.47852495e-05 
 4.44000000e+00  4.44230835e+00  4.44000000e+00  6.47031865e-05 
 4.45000000e+00  4.45266968e+00  4.45000000e+00  6.46176220e-05 
 4.46000000e+00  4.46310284e+00  4.46000000e+00  6.45280242e-05 
 4.47000000e+00  4.47362697e+00  4.47000000e+00  6.44337331e-05 
 4.48000000e+00  4.48426511e+00  4.48000000e+00  6.43339281e-05 
 4.49000000e+00  4.49505106e+00  4.49000000e+00  6.42275021e-05 
 4.50000000e+00  4.50602603e+00  4.50000000e+00  6.41130288e-05 
 4.51000000e+00  4.51724352e+00  4.51000000e+00  6.39886082e-05 
 4.52000000e+00  4.52877920e+00  4.52000000e+00  6.38515793e-05 
 4.53000000e+00  4.54102913e+00  4.53000000e+00  6.36927445e-05 
 4.54000000e+00  4.55372580e+00  4.54000000e+00  6.35130863e-05 
 4.55000000e+00  4.56737231e+00  4.55000000e+00  6.32978150e-05 
 4.56000000e+00  4.58229689e+00  4.56000000e+00  6.30307592e-05 
 4.57000000e+00  4.59885323e+00  4.57000000e+00  6.26898449e-05 
 4.58000000e+00  4.62042234e+00  4.58000000e+00  6.21338824e-05 
 4.59000000e+00  4.64968896e+00  4.59000000e+00  6.11511556e-05 
 4.60000000e+00  4.71102772e+00  4.60000000e+00  5.79037202e-05 
 4.61000000e+00  4.99641498e+00  4.61000000e+00  1.48530715e-05 
 4.62000000e+00  4.99978625e+00  4.62000000e+00  1.40507392e-05 
 4.63000000e+00  4.99997323e+00  4.63000000e+00  1.40060250e-05 
 4.64000000e+00  4.99999429e+00  4.64000000e+00  1.40009879e-05 
 4.65000000e+00  4.99999813e+00  4.65000000e+00  1.40000688e-05 
 4.66000000e+00  4.99999915e+00  4.66000000e+00  1.39998256e-05 
 4.67000000e+00  4.99999950e+00  4.67000000e+00  1.39997403e-05 
 4.68000000e+00  4.99999965e+00  4.68000000e+00  1.39997036e-05 
 4.69000000e+00  4.99999973e+00  4.69000000e+00  1.39996853e-05 
 4.70000000e+00  4.99999977e+00  4.70000000e+00  1.39996752e-05 
 4.71000000e+00  4.99999980e+00  4.71000000e+00  1.39996692e-05 
 4.72000000e+00  4.99999981e+00  4.72000000e+00  1.39996655e-05 
 4.73000000e+00  4.99999982e+00  4.73000000e+00  1.39996631e-05 
 4.74000000e+00  4.99999983e+00  4.74000000e+00  1.39996616e-05 
 4.75000000e+00  4.99999983e+00  4.75000000e+00  1.39996607e-05 
 4.76000000e+00  4.99999983e+00  4.76000000e+00  1.39996603e-05 
 4.77000000e+00  4.99999983e+00  4.77000000e+00  1.39996602e-05 
 4.78000000e+00  4.99999983e+00  4.78000000e+00  1.39996604e-05 
 4.79000000e+00  4.99999983e+00  4.79000000e+00  1.39996608e-05 
 4.80000000e+00  4.99999983e+00  4.80000000e+00  1.39996615e-05 
 4.81000000e+00  4.99999982e+00  4.81000000e+00  1.39996622e-05 
 4.82000000e+00  4.99999982e+00  4.82000000e+00  1.39996632e-05 
 4.83000000e+00  4.99999982e+00  4.83000000e+00  1.39996643e-05 
 4.84000000e+00  4.99999981e+00  4.84000000e+00  1.39996655e-05 
 4.85000000e+00  4.99999980e+00  4.85000000e+00  1.39996670e-05 
 4.86000000e+00  4.99999980e+00  4.86000000e+00  1.39996686e-05 
 4.87000000e+00  4.99999979e+00  4.87000000e+00  1.39996704e-05 
 4.88000000e+00  4.99999978e+00  4.88000000e+00  1.39996723e-05 
 4.89000000e+00  4.99999977e+00  4.89000000e+00  1.39996744e-05 
 4.90000000e+00  4.99999977e+00  4.90000000e+00  1.39996764e-05 
 4.91000000e+00  4.99999976e+00  4.91000000e+00  1.39996789e-05 
 4.92000000e+00  4.99999974e+00  4.92000000e+00  1.39996821e-05 
 4.93000000e+00  4.99999973e+00  4.93000000e+00  1.39996851e-05 
 4.94000000e+00  4.99999972e+00  4.94000000e+00  1.39996884e-05 
 4.95000000e+00  4.99999970e+00  4.95000000e+00  1.39996920e-05 
 4.96000000e+00  4.99999969e+00  4.96000000e+00  1.39996960e-05 
 4.97000000e+00  4.99999967e+00  4.97000000e+00  1.39997002e-05 
 4.98000000e+00  4.99999965e+00  4.98000000e+00  1.39997049e-05 
 4.99000000e+00  4.99999963e+00  4.99000000e+00  1.39997100e-05 
 5.00000000e+00  4.99999960e+00  5.00000000e+00  1.39997156e-05 
