 0.00000000e+00  9.56501027e-02  0.00000000e+00  9.79926460e-05 
 1.00000000e-02  9.64704000e-02  1.00000000e-02  9.79893990e-05 
 2.00000000e-02  9.74091913e-02  2.00000000e-02  9.79856855e-05 
 3.00000000e-02  9.84928229e-02  3.00000000e-02  9.79814027e-05 
 4.00000000e-02  9.97557807e-02  4.00000000e-02  9.79764158e-05 
 5.00000000e-02  1.01243976e-01  5.00000000e-02  9.79705461e-05 
 6.00000000e-02  1.03019619e-01  6.00000000e-02  9.79635521e-05 
 7.00000000e-02  1.05168425e-01  7.00000000e-02  9.79551019e-05 
 8.00000000e-02  1.07809984e-01  8.00000000e-02  9.79447349e-05 
 9.00000000e-02  1.11110595e-01  9.00000000e-02  9.79318139e-05 
 1.00000000e-01  1.15292602e-01  1.00000000e-01  9.79154959e-05 
 1.10000000e-01  1.20614275e-01  1.10000000e-01  9.78948191e-05 
 1.20000000e-01  1.27268389e-01  1.20000000e-01  9.78691093e-05 
 1.30000000e-01  1.35203438e-01  1.30000000e-01  9.78386682e-05 
 1.40000000e-01  1.44085697e-01  1.40000000e-01  9.78048875e-05 
 1.50000000e-01  1.53520763e-01  1.50000000e-01  9.77693593e-05 
 1.60000000e-01  1.63237469e-01  1.60000000e-01  9.77331654e-05 
 1.70000000e-01  1.73092544e-01  1.70000000e-01  9.76968746e-05 
 1.80000000e-01  1.83017172e-01  1.80000000e-01  9.76607590e-05 
 1.90000000e-01  1.92978521e-01  1.90000000e-01  9.76249469e-05 
 2.00000000e-01  2.02960381e-01  2.00000000e-01  9.75894993e-05 
 2.10000000e-01  2.12954328e-01  2.10000000e-01  9.75544455e-05 
 2.20000000e-01  2.22955717e-01  2.20000000e-01  9.75197986e-05 
 2.30000000e-01  2.32961830e-01  2.30000000e-01  9.74855634e-05 
 2.40000000e-01  2.42970991e-01  2.40000000e-01  9.74517401e-05 
 2.50000000e-01  2.52982099e-01  2.50000000e-01  9.74183262e-05 
 2.60000000e-01  2.62994484e-01  2.60000000e-01  9.73853174e-05 
 2.70000000e-01  2.73007596e-01  2.70000000e-01  9.73527084e-05 
 2.80000000e-01  2.83021106e-01  2.80000000e-01  9.73204934e-05 
 2.90000000e-01  2.93034772e-01  2.90000000e-01  9.72886658e-05 
 3.00000000e-01  3.03048419e-01  3.00000000e-01  9.72572189e-05 
 3.10000000e-01  3.13061928e-01  3.10000000e-01  9.72261460e-05 
 3.20000000e-01  3.23075213e-01  3.20000000e-01  9.71954400e-05 
 3.30000000e-01  3.33088215e-01  3.30000000e-01  9.71650939e-05 
 3.40000000e-01  3.43100897e-01  3.40000000e-01  9.71351006e-05 
 3.50000000e-01  3.53113234e-01  3.50000000e-01  9.71054531e-05 
 3.60000000e-01  3.63125211e-01  3.60000000e-01  9.70761445e-05 
 3.70000000e-01  3.73136822e-01  3.70000000e-01  9.70471677e-05 
 3.80000000e-01  3.83148067e-01  3.80000000e-01  9.70185159e-05 
 3.90000000e-01  3.93158947e-01  3.90000000e-01  9.69901822e-05 
 4.00000000e-01  4.03169470e-01  4.00000000e-01  9.69621600e-05 
 4.10000000e-01  4.13179643e-01  4.10000000e-01  9.69344425e-05 
 4.20000000e-01  4.23189475e-01  4.20000000e-01  9.69070232e-05 
 4.30000000e-01  4.33198978e-01  4.30000000e-01  9.68798955e-05 
 4.40000000e-01  4.43208160e-01  4.40000000e-01  9.68530531e-05 
 4.50000000e-01  4.53217035e-01  4.50000000e-01  9.68264896e-05 
 4.60000000e-01  4.63225612e-01  4.60000000e-01  9.68001987e-05 
 4.70000000e-01  4.73233904e-01  4.70000000e-01  9.67741744e-05 
 4.80000000e-01  4.83241920e-01  4.80000000e-01  9.67484105e-05 
 4.90000000e-01  4.93249673e-01  4.90000000e-01  9.67229010e-05 
 5.00000000e-01  5.03257171e-01  5.00000000e-01  9.66976401e-05 
 5.10000000e-01  5.13264425e-01  5.10000000e-01  9.66726219e-05 
 5.20000000e-01  5.23271446e-01  5.20000000e-01  9.66478408e-05 
 5.30000000e-01  5.33278242e-01  5.30000000e-01  9.66232910e-05 
 5.40000000e-01  5.43284822e-01  5.40000000e-01  9.65989670e-05 
 5.50000000e-01  5.53291194e-01  5.50000000e-01  9.65748634e-05 
 5.60000000e-01  5.63297368e-01  5.60000000e-01  9.65509748e-05 
 5.70000000e-01  5.73303351e-01  5.70000000e-01  9.65272957e-05 
 5.80000000e-01  5.83309151e-01  5.80000000e-01  9.65038212e-05 
 5.90000000e-01  5.93314774e-01  5.90000000e-01  9.64805459e-05 
 6.00000000e-01  6.03320228e-01  6.00000000e-01  9.64574648e-05 
 6.10000000e-01  6.13325471e-01  6.10000000e-01  9.64345730e-05 
 6.20000000e-01  6.23330654e-01  6.20000000e-01  9.64118654e-05 
 6.30000000e-01  6.33335638e-01  6.30000000e-01  9.63893374e-05 
 6.40000000e-01  6.43340477e-01  6.40000000e-01  9.63669841e-05 
 6.50000000e-01  6.53345176e-01  6.50000000e-01  9.63448009e-05 
 6.60000000e-01  6.63349742e-01  6.60000000e-01  9.63227831e-05 
 6.70000000e-01  6.73354178e-01  6.70000000e-01  9.63009263e-05 
 6.80000000e-01  6.83358490e-01  6.80000000e-01  9.62792260e-05 
 6.90000000e-01  6.93362682e-01  6.90000000e-01  9.62576778e-05 
 7.00000000e-01  7.03366758e-01  7.00000000e-01  9.62362774e-05 
 7.10000000e-01  7.13370723e-01  7.10000000e-01  9.62150206e-05 
 7.20000000e-01  7.23374580e-01  7.20000000e-01  9.61939032e-05 
 7.30000000e-01  7.33378333e-01  7.30000000e-01  9.61729210e-05 
 7.40000000e-01  7.43381986e-01  7.40000000e-01  9.61520702e-05 
 7.50000000e-01  7.53385543e-01  7.50000000e-01  9.61313466e-05 
 7.60000000e-01  7.63389006e-01  7.60000000e-01  9.61107465e-05 
 7.70000000e-01  7.73392378e-01  7.70000000e-01  9.60902660e-05 
 7.80000000e-01  7.83395664e-01  7.80000000e-01  9.60699013e-05 
 7.90000000e-01  7.93398865e-01  7.90000000e-01  9.60496488e-05 
 8.00000000e-01  8.03401985e-01  8.00000000e-01  9.60295047e-05 
 8.10000000e-01  8.13405025e-01  8.10000000e-01  9.60094656e-05 
 8.20000000e-01  8.23407990e-01  8.20000000e-01  9.59895279e-05 
 8.30000000e-01  8.33410880e-01  8.30000000e-01  9.59696881e-05 
 8.40000000e-01  8.43413699e-01  8.40000000e-01  9.59499430e-05 
 8.50000000e-01  8.53416449e-01  8.50000000e-01  9.59302891e-05 
 8.60000000e-01  8.63419132e-01  8.60000000e-01  9.59107232e-05 
 8.70000000e-01  8.73421750e-01  8.70000000e-01  9.58912420e-05 
 8.80000000e-01  8.83424304e-01  8.80000000e-01  9.58718425e-05 
 8.90000000e-01  8.93426798e-01  8.90000000e-01  9.58525216e-05 
 9.00000000e-01  9.03429232e-01  9.00000000e-01  9.58332761e-05 
 9.10000000e-01  9.13431609e-01  9.10000000e-01  9.58141031e-05 
 9.20000000e-01  9.23433930e-01  9.20000000e-01  9.57949997e-05 
 9.30000000e-01  9.33436197e-01  9.30000000e-01  9.57759629e-05 
 9.40000000e-01  9.43438412e-01  9.40000000e-01  9.57569901e-05 
 9.50000000e-01  9.53440575e-01  9.50000000e-01  9.57380783e-05 
 9.60000000e-01  9.63442689e-01  9.60000000e-01  9.57192249e-05 
 9.70000000e-01  9.73444755e-01  9.70000000e-01  9.57004271e-05 
 9.80000000e-01  9.83446775e-01  9.80000000e-01  9.56816825e-05 
 9.90000000e-01  9.93448749e-01  9.90000000e-01  9.56629883e-05 
 1.00000000e+00  1.00345068e+00  1.00000000e+00  9.56443421e-05 
 1.01000000e+00  1.01345257e+00  1.01000000e+00  9.56257414e-05 
 1.02000000e+00  1.02345441e+00  1.02000000e+00  9.56071837e-05 
 1.03000000e+00  1.03345621e+00  1.03000000e+00  9.55886667e-05 
 1.04000000e+00  1.04345798e+00  1.04000000e+00  9.55701880e-05 
 1.05000000e+00  1.05345971e+00  1.05000000e+00  9.55517453e-05 
 1.06000000e+00  1.06346140e+00  1.06000000e+00  9.55333364e-05 
 1.07000000e+00  1.07346305e+00  1.07000000e+00  9.55149590e-05 
 1.08000000e+00  1.08346467e+00  1.08000000e+00  9.54966110e-05 
 1.09000000e+00  1.09346625e+00  1.09000000e+00  9.54782903e-05 
 1.10000000e+00  1.10346780e+00  1.10000000e+00  9.54599948e-05 
 1.11000000e+00  1.11346932e+00  1.11000000e+00  9.54417223e-05 
 1.12000000e+00  1.12347080e+00  1.12000000e+00  9.54234709e-05 
 1.13000000e+00  1.13347226e+00  1.13000000e+00  9.54052387e-05 
 1.14000000e+00  1.14347368e+00  1.14000000e+00  9.53870237e-05 
 1.15000000e+00  1.15347507e+00  1.15000000e+00  9.53688240e-05 
 1.16000000e+00  1.16347644e+00  1.16000000e+00  9.53506377e-05 
 1.17000000e+00  1.17347778e+00  1.17000000e+00  9.53324631e-05 
 1.18000000e+00  1.18347909e+00  1.18000000e+00  9.53142982e-05 
 1.19000000e+00  1.19348037e+00  1.19000000e+00  9.52961415e-05 
 1.20000000e+00  1.20348163e+00  1.20000000e+00  9.52779911e-05 
 1.21000000e+00  1.21348286e+00  1.21000000e+00  9.52598453e-05 
 1.22000000e+00  1.22348407e+00  1.22000000e+00  9.52417026e-05 
 1.23000000e+00  1.23348525e+00  1.23000000e+00  9.52235613e-05 
 1.24000000e+00  1.24348641e+00  1.24000000e+00  9.52054197e-05 
 1.25000000e+00  1.25348755e+00  1.25000000e+00  9.51872764e-05 
 1.26000000e+00  1.26348866e+00  1.26000000e+00  9.51691297e-05 
 1.27000000e+00  1.27348976e+00  1.27000000e+00  9.51509782e-05 
 1.28000000e+00  1.28349083e+00  1.28000000e+00  9.51328205e-05 
 1.29000000e+00  1.29349188e+00  1.29000000e+00  9.51146550e-05 
 1.30000000e+00  1.30349291e+00  1.30000000e+00  9.50964804e-05 
 1.31000000e+00  1.31349392e+00  1.31000000e+00  9.50782952e-05 
 1.32000000e+00  1.32349491e+00  1.32000000e+00  9.50600981e-05 
 1.33000000e+00  1.33349588e+00  1.33000000e+00  9.50418877e-05 
 1.34000000e+00  1.34349683e+00  1.34000000e+00  9.50236627e-05 
 1.35000000e+00  1.35349777e+00  1.35000000e+00  9.50054219e-05 
 1.36000000e+00  1.36349869e+00  1.36000000e+00  9.49871639e-05 
 1.37000000e+00  1.37349959e+00  1.37000000e+00  9.49688875e-05 
 1.38000000e+00  1.38350047e+00  1.38000000e+00  9.49505915e-05 
 1.39000000e+00  1.39350134e+00  1.39000000e+00  9.49322747e-05 
 1.40000000e+00  1.40350219e+00  1.40000000e+00  9.49139358e-05 
 1.41000000e+00  1.41350302e+00  1.41000000e+00  9.48955738e-05 
 1.42000000e+00  1.42350384e+00  1.42000000e+00  9.48771875e-05 
 1.43000000e+00  1.43350465e+00  1.43000000e+00  9.48587757e-05 
 1.44000000e+00  1.44350544e+00  1.44000000e+00  9.48403374e-05 
 1.45000000e+00  1.45350621e+00  1.45000000e+00  9.48218714e-05 
 1.46000000e+00  1.46350698e+00  1.46000000e+00  9.48033768e-05 
 1.47000000e+00  1.47350772e+00  1.47000000e+00  9.47848524e-05 
 1.48000000e+00  1.48350846e+00  1.48000000e+00  9.47662973e-05 
 1.49000000e+00  1.49350918e+00  1.49000000e+00  9.47477103e-05 
 1.50000000e+00  1.50350989e+00  1.50000000e+00  9.47290906e-05 
 1.51000000e+00  1.51351059e+00  1.51000000e+00  9.47104370e-05 
 1.52000000e+00  1.52351127e+00  1.52000000e+00  9.46917487e-05 
 1.53000000e+00  1.53351194e+00  1.53000000e+00  9.46730247e-05 
 1.54000000e+00  1.54351260e+00  1.54000000e+00  9.46542640e-05 
 1.55000000e+00  1.55351325e+00  1.55000000e+00  9.46354658e-05 
 1.56000000e+00  1.56351389e+00  1.56000000e+00  9.46166290e-05 
 1.57000000e+00  1.57351451e+00  1.57000000e+00  9.45977528e-05 
 1.58000000e+00  1.58351513e+00  1.58000000e+00  9.45788363e-05 
 1.59000000e+00  1.59351574e+00  1.59000000e+00  9.45598786e-05 
 1.60000000e+00  1.60351633e+00  1.60000000e+00  9.45408788e-05 
 1.61000000e+00  1.61351692e+00  1.61000000e+00  9.45218361e-05 
 1.62000000e+00  1.62351749e+00  1.62000000e+00  9.45027496e-05 
 1.63000000e+00  1.63351806e+00  1.63000000e+00  9.44836185e-05 
 1.64000000e+00  1.64351862e+00  1.64000000e+00  9.44644419e-05 
 1.65000000e+00  1.65351916e+00  1.65000000e+00  9.44452190e-05 
 1.66000000e+00  1.66351970e+00  1.66000000e+00  9.44259490e-05 
 1.67000000e+00  1.67352023e+00  1.67000000e+00  9.44066311e-05 
 1.68000000e+00  1.68352075e+00  1.68000000e+00  9.43872644e-05 
 1.69000000e+00  1.69352127e+00  1.69000000e+00  9.43678482e-05 
 1.70000000e+00  1.70352177e+00  1.70000000e+00  9.43483817e-05 
 1.71000000e+00  1.71352227e+00  1.71000000e+00  9.43288641e-05 
 1.72000000e+00  1.72352276e+00  1.72000000e+00  9.43092946e-05 
 1.73000000e+00  1.73352324e+00  1.73000000e+00  9.42896724e-05 
 1.74000000e+00  1.74352371e+00  1.74000000e+00  9.42699968e-05 
 1.75000000e+00  1.75352418e+00  1.75000000e+00  9.42502669e-05 
 1.76000000e+00  1.76352464e+00  1.76000000e+00  9.42304821e-05 
 1.77000000e+00  1.77352510e+00  1.77000000e+00  9.42106416e-05 
 1.78000000e+00  1.78352554e+00  1.78000000e+00  9.41907445e-05 
 1.79000000e+00  1.79352598e+00  1.79000000e+00  9.41707902e-05 
 1.80000000e+00  1.80352642e+00  1.80000000e+00  9.41507779e-05 
 1.81000000e+00  1.81352685e+00  1.81000000e+00  9.41307069e-05 
 1.82000000e+00  1.82352727e+00  1.82000000e+00  9.41105763e-05 
 1.83000000e+00  1.83352768e+00  1.83000000e+00  9.40903854e-05 
 1.84000000e+00  1.84352809e+00  1.84000000e+00  9.40701335e-05 
 1.85000000e+00  1.85352850e+00  1.85000000e+00  9.40498199e-05 
 1.86000000e+00  1.86352890e+00  1.86000000e+00  9.40294437e-05 
 1.87000000e+00  1.87352929e+00  1.87000000e+00  9.40090042e-05 
 1.88000000e+00  1.88352968e+00  1.88000000e+00  9.39885007e-05 
 1.89000000e+00  1.89353006e+00  1.89000000e+00  9.39679324e-05 
 1.90000000e+00  1.90353044e+00  1.90000000e+00  9.39472985e-05 
 1.91000000e+00  1.91353081e+00  1.91000000e+00  9.39265984e-05 
 1.92000000e+00  1.92353480e+00  1.92000000e+00  9.39058239e-05 
 1.93000000e+00  1.93353155e+00  1.93000000e+00  9.38849960e-05 
 1.94000000e+00  1.94353225e+00  1.94000000e+00  9.38640917e-05 
 1.95000000e+00  1.95353227e+00  1.95000000e+00  9.38431192e-05 
 1.96000000e+00  1.96353262e+00  1.96000000e+00  9.38220760e-05 
 1.97000000e+00  1.97353297e+00  1.97000000e+00  9.38009617e-05 
 1.98000000e+00  1.98353331e+00  1.98000000e+00  9.37797758e-05 
 1.99000000e+00  1.99353365e+00  1.99000000e+00  9.37585172e-05 
 2.00000000e+00  2.00353399e+00  2.00000000e+00  9.37371854e-05 
 2.01000000e+00  2.01353432e+00  2.01000000e+00  9.37157794e-05 
 2.02000000e+00  2.02353465e+00  2.02000000e+00  9.36942984e-05 
 2.03000000e+00  2.03353498e+00  2.03000000e+00  9.36727417e-05 
 2.04000000e+00  2.04353530e+00  2.04000000e+00  9.36511083e-05 
 2.05000000e+00  2.05353562e+00  2.05000000e+00  9.36293975e-05 
 2.06000000e+00  2.06353594e+00  2.06000000e+00  9.36076084e-05 
 2.07000000e+00  2.07353625e+00  2.07000000e+00  9.35857402e-05 
 2.08000000e+00  2.08353657e+00  2.08000000e+00  9.35637919e-05 
 2.09000000e+00  2.09353688e+00  2.09000000e+00  9.35417628e-05 
 2.10000000e+00  2.10353718e+00  2.10000000e+00  9.35196519e-05 
 2.11000000e+00  2.11353749e+00  2.11000000e+00  9.34974584e-05 
 2.12000000e+00  2.12353779e+00  2.12000000e+00  9.34751813e-05 
 2.13000000e+00  2.13353809e+00  2.13000000e+00  9.34528197e-05 
 2.14000000e+00  2.14353839e+00  2.14000000e+00  9.34303727e-05 
 2.15000000e+00  2.15353869e+00  2.15000000e+00  9.34078395e-05 
 2.16000000e+00  2.16353898e+00  2.16000000e+00  9.33852189e-05 
 2.17000000e+00  2.17353927e+00  2.17000000e+00  9.33625101e-05 
 2.18000000e+00  2.18353956e+00  2.18000000e+00  9.33397121e-05 
 2.19000000e+00  2.19353985e+00  2.19000000e+00  9.33168239e-05 
 2.20000000e+00  2.20354014e+00  2.20000000e+00  9.32938444e-05 
 2.21000000e+00  2.21354043e+00  2.21000000e+00  9.32707728e-05 
 2.22000000e+00  2.22354072e+00  2.22000000e+00  9.32476078e-05 
 2.23000000e+00  2.23354100e+00  2.23000000e+00  9.32243486e-05 
 2.24000000e+00  2.24354128e+00  2.24000000e+00  9.32009940e-05 
 2.25000000e+00  2.25354157e+00  2.25000000e+00  9.31775430e-05 
 2.26000000e+00  2.26354185e+00  2.26000000e+00  9.31539944e-05 
 2.27000000e+00  2.27354213e+00  2.27000000e+00  9.31303471e-05 
 2.28000000e+00  2.28354241e+00  2.28000000e+00  9.31066000e-05 
 2.29000000e+00  2.29354269e+00  2.29000000e+00  9.30827520e-05 
 2.30000000e+00  2.30354297e+00  2.30000000e+00  9.30588019e-05 
 2.31000000e+00  2.31354325e+00  2.31000000e+00  9.30347484e-05 
 2.32000000e+00  2.32354353e+00  2.32000000e+00  9.30105904e-05 
 2.33000000e+00  2.33354381e+00  2.33000000e+00  9.29863267e-05 
 2.34000000e+00  2.34354409e+00  2.34000000e+00  9.29619559e-05 
 2.35000000e+00  2.35354437e+00  2.35000000e+00  9.29374768e-05 
 2.36000000e+00  2.36354464e+00  2.36000000e+00  9.29128881e-05 
 2.37000000e+00  2.37354492e+00  2.37000000e+00  9.28881885e-05 
 2.38000000e+00  2.38354520e+00  2.38000000e+00  9.28633766e-05 
 2.39000000e+00  2.39354548e+00  2.39000000e+00  9.28384511e-05 
 2.40000000e+00  2.40354577e+00  2.40000000e+00  9.28134105e-05 
 2.41000000e+00  2.41354605e+00  2.41000000e+00  9.27882534e-05 
 2.42000000e+00  2.42354633e+00  2.42000000e+00  9.27629784e-05 
 2.43000000e+00  2.43354661e+00  2.43000000e+00  9.27375840e-05 
 2.44000000e+00  2.44354690e+00  2.44000000e+00  9.27120687e-05 
 2.45000000e+00  2.45354718e+00  2.45000000e+00  9.26864309e-05 
 2.46000000e+00  2.46354747e+00  2.46000000e+00  9.26606690e-05 
 2.47000000e+00  2.47354776e+00  2.47000000e+00  9.26347815e-05 
 2.48000000e+00  2.48354805e+00  2.48000000e+00  9.26087667e-05 
 2.49000000e+00  2.49354834e+00  2.49000000e+00  9.25826230e-05 
 2.50000000e+00  2.50354863e+00  2.50000000e+00  9.25563486e-05 
 2.51000000e+00  2.51354893e+00  2.51000000e+00  9.25299417e-05 
 2.52000000e+00  2.52354922e+00  2.52000000e+00  9.25034007e-05 
 2.53000000e+00  2.53354952e+00  2.53000000e+00  9.24767236e-05 
 2.54000000e+00  2.54354982e+00  2.54000000e+00  9.24499087e-05 
 2.55000000e+00  2.55355012e+00  2.55000000e+00  9.24229540e-05 
 2.56000000e+00  2.56355043e+00  2.56000000e+00  9.23958576e-05 
 2.57000000e+00  2.57355074e+00  2.57000000e+00  9.23686175e-05 
 2.58000000e+00  2.58355105e+00  2.58000000e+00  9.23412316e-05 
 2.59000000e+00  2.59355136e+00  2.59000000e+00  9.23136979e-05 
 2.60000000e+00  2.60355167e+00  2.60000000e+00  9.22860143e-05 
 2.61000000e+00  2.61355199e+00  2.61000000e+00  9.22581785e-05 
 2.62000000e+00  2.62355231e+00  2.62000000e+00  9.22301884e-05 
 2.63000000e+00  2.63355264e+00  2.63000000e+00  9.22020417e-05 
 2.64000000e+00  2.64355297e+00  2.64000000e+00  9.21737360e-05 
 2.65000000e+00  2.65355330e+00  2.65000000e+00  9.21452689e-05 
 2.66000000e+00  2.66355363e+00  2.66000000e+00  9.21166380e-05 
 2.67000000e+00  2.67355397e+00  2.67000000e+00  9.20878408e-05 
 2.68000000e+00  2.68355431e+00  2.68000000e+00  9.20588747e-05 
 2.69000000e+00  2.69355466e+00  2.69000000e+00  9.20297370e-05 
 2.70000000e+00  2.70355501e+00  2.70000000e+00  9.20004250e-05 
 2.71000000e+00  2.71355537e+00  2.71000000e+00  9.19709360e-05 
 2.72000000e+00  2.72355572e+00  2.72000000e+00  9.19412671e-05 
 2.73000000e+00  2.73355609e+00  2.73000000e+00  9.19114153e-05 
 2.74000000e+00  2.74355646e+00  2.74000000e+00  9.18813776e-05 
 2.75000000e+00  2.75355683e+00  2.75000000e+00  9.18511510e-05 
 2.76000000e+00  2.76355721e+00  2.76000000e+00  9.18207322e-05 
 2.77000000e+00  2.77355759e+00  2.77000000e+00  9.17901180e-05 
 2.78000000e+00  2.78355798e+00  2.78000000e+00  9.17593050e-05 
 2.79000000e+00  2.79355838e+00  2.79000000e+00  9.17282897e-05 
 2.80000000e+00  2.80355878e+00  2.80000000e+00  9.16970686e-05 
 2.81000000e+00  2.81355919e+00  2.81000000e+00  9.16656381e-05 
 2.82000000e+00  2.82355960e+00  2.82000000e+00  9.16339942e-05 
 2.83000000e+00  2.83356002e+00  2.83000000e+00  9.16021332e-05 
 2.84000000e+00  2.84356045e+00  2.84000000e+00  9.15700509e-05 
 2.85000000e+00  2.85356088e+00  2.85000000e+00  9.15377433e-05 
 2.86000000e+00  2.86356132e+00  2.86000000e+00  9.15052061e-05 
 2.87000000e+00  2.87356177e+00  2.87000000e+00  9.14724349e-05 
 2.88000000e+00  2.88356222e+00  2.88000000e+00  9.14394250e-05 
 2.89000000e+00  2.89356268e+00  2.89000000e+00  9.14061719e-05 
 2.90000000e+00  2.90356315e+00  2.90000000e+00  9.13726705e-05 
 2.91000000e+00  2.91356363e+00  2.91000000e+00  9.13389160e-05 
 2.92000000e+00  2.92356412e+00  2.92000000e+00  9.13049030e-05 
 2.93000000e+00  2.93356462e+00  2.93000000e+00  9.12706261e-05 
 2.94000000e+00  2.94356512e+00  2.94000000e+00  9.12360798e-05 
 2.95000000e+00  2.95356564e+00  2.95000000e+00  9.12012583e-05 
 2.96000000e+00  2.96356616e+00  2.96000000e+00  9.11661555e-05 
 2.97000000e+00  2.97356670e+00  2.97000000e+00  9.11307652e-05 
 2.98000000e+00  2.98356725e+00  2.98000000e+00  9.10950809e-05 
 2.99000000e+00  2.99356780e+00  2.99000000e+00  9.10590959e-05 
 3.00000000e+00  3.00356837e+00  3.00000000e+00  9.10228030e-05 
 3.01000000e+00  3.01356895e+00  3.01000000e+00  9.09861951e-05 
 3.02000000e+00  3.02356954e+00  3.02000000e+00  9.09492644e-05 
 3.03000000e+00  3.03357014e+00  3.03000000e+00  9.09120031e-05 
 3.04000000e+00  3.04357076e+00  3.04000000e+00  9.08744028e-05 
 3.05000000e+00  3.05357139e+00  3.05000000e+00  9.08364548e-05 
 3.06000000e+00  3.06357204e+00  3.06000000e+00  9.07981502e-05 
 3.07000000e+00  3.07357270e+00  3.07000000e+00  9.07594793e-05 
 3.08000000e+00  3.08357337e+00  3.08000000e+00  9.07204322e-05 
 3.09000000e+00  3.09357406e+00  3.09000000e+00  9.06809984e-05 
 3.10000000e+00  3.10357477e+00  3.10000000e+00  9.06411670e-05 
 3.11000000e+00  3.11357549e+00  3.11000000e+00  9.06009264e-05 
 3.12000000e+00  3.12357622e+00  3.12000000e+00  9.05602644e-05 
 3.13000000e+00  3.13357699e+00  3.13000000e+00  9.05191680e-05 
 3.14000000e+00  3.14357777e+00  3.14000000e+00  9.04776238e-05 
 3.15000000e+00  3.15357857e+00  3.15000000e+00  9.04356173e-05 
 3.16000000e+00  3.16357934e+00  3.16000000e+00  9.03931332e-05 
 3.17000000e+00  3.17358023e+00  3.17000000e+00  9.03501551e-05 
 3.18000000e+00  3.18358109e+00  3.18000000e+00  9.03066659e-05 
 3.19000000e+00  3.19358198e+00  3.19000000e+00  9.02626469e-05 
 3.20000000e+00  3.20358289e+00  3.20000000e+00  9.02180785e-05 
 3.21000000e+00  3.21358383e+00  3.21000000e+00  9.01729393e-05 
 3.22000000e+00  3.22358480e+00  3.22000000e+00  9.01272066e-05 
 3.23000000e+00  3.23358580e+00  3.23000000e+00  9.00808556e-05 
 3.24000000e+00  3.24358683e+00  3.24000000e+00  9.00338596e-05 
 3.25000000e+00  3.25358790e+00  3.25000000e+00  8.99861897e-05 
 3.26000000e+00  3.26358899e+00  3.26000000e+00  8.99378142e-05 
 3.27000000e+00  3.27359013e+00  3.27000000e+00  8.98886987e-05 
 3.28000000e+00  3.28359131e+00  3.28000000e+00  8.98388051e-05 
 3.29000000e+00  3.29359253e+00  3.29000000e+00  8.97880915e-05 
 3.30000000e+00  3.30359396e+00  3.30000000e+00  8.97365107e-05 
 3.31000000e+00  3.31359510e+00  3.31000000e+00  8.96840135e-05 
 3.32000000e+00  3.32359647e+00  3.32000000e+00  8.96305395e-05 
 3.33000000e+00  3.33359789e+00  3.33000000e+00  8.95760246e-05 
 3.34000000e+00  3.34359938e+00  3.34000000e+00  8.95203951e-05 
 3.35000000e+00  3.35360093e+00  3.35000000e+00  8.94635674e-05 
 3.36000000e+00  3.36360256e+00  3.36000000e+00  8.94054456e-05 
 3.37000000e+00  3.37360427e+00  3.37000000e+00  8.93459195e-05 
 3.38000000e+00  3.38360607e+00  3.38000000e+00  8.92848617e-05 
 3.39000000e+00  3.39360797e+00  3.39000000e+00  8.92221235e-05 
 3.40000000e+00  3.40360999e+00  3.40000000e+00  8.91575313e-05 
 3.41000000e+00  3.41361213e+00  3.41000000e+00  8.90908808e-05 
 3.42000000e+00  3.42361441e+00  3.42000000e+00  8.90219307e-05 
 3.43000000e+00  3.43361964e+00  3.43000000e+00  8.89503829e-05 
 3.44000000e+00  3.44361950e+00  3.44000000e+00  8.88759333e-05 
 3.45000000e+00  3.45362234e+00  3.45000000e+00  8.87981423e-05 
 3.46000000e+00  3.46362545e+00  3.46000000e+00  8.87165416e-05 
 3.47000000e+00  3.47362883e+00  3.47000000e+00  8.86305630e-05 
 3.48000000e+00  3.48363256e+00  3.48000000e+00  8.85395378e-05 
 3.49000000e+00  3.49363668e+00  3.49000000e+00  8.84426860e-05 
 3.50000000e+00  3.50364125e+00  3.50000000e+00  8.83391098e-05 
 3.51000000e+00  3.51364636e+00  3.51000000e+00  8.82277929e-05 
 3.52000000e+00  3.52365208e+00  3.52000000e+00  8.81076087e-05 
 3.53000000e+00  3.53365851e+00  3.53000000e+00  8.79773390e-05 
 3.54000000e+00  3.54366573e+00  3.54000000e+00  8.78357057e-05 
 3.55000000e+00  3.55367386e+00  3.55000000e+00  8.76814109e-05 
 3.56000000e+00  3.56368299e+00  3.56000000e+00  8.75131837e-05 
 3.57000000e+00  3.57369323e+00  3.57000000e+00  8.73298277e-05 
 3.58000000e+00  3.58370467e+00  3.58000000e+00  8.71302629e-05 
 3.59000000e+00  3.59371739e+00  3.59000000e+00  8.69135578e-05 
 3.60000000e+00  3.60373149e+00  3.60000000e+00  8.66789492e-05 
 3.61000000e+00  3.61374704e+00  3.61000000e+00  8.64258482e-05 
 3.62000000e+00  3.62376409e+00  3.62000000e+00  8.61538380e-05 
 3.63000000e+00  3.63378273e+00  3.63000000e+00  8.58626627e-05 
 3.64000000e+00  3.64380300e+00  3.64000000e+00  8.55522117e-05 
 3.65000000e+00  3.65382496e+00  3.65000000e+00  8.52225032e-05 
 3.66000000e+00  3.66384867e+00  3.66000000e+00  8.48736678e-05 
 3.67000000e+00  3.67387417e+00  3.67000000e+00  8.45059327e-05 
 3.68000000e+00  3.68390152e+00  3.68000000e+00  8.41196090e-05 
 3.69000000e+00  3.69392839e+00  3.69000000e+00  8.37150876e-05 
 3.70000000e+00  3.70396201e+00  3.70000000e+00  8.32927972e-05 
 3.71000000e+00  3.71399527e+00  3.71000000e+00  8.28532641e-05 
 3.72000000e+00  3.72403063e+00  3.72000000e+00  8.23970413e-05 
 3.73000000e+00  3.73406817e+00  3.73000000e+00  8.19247385e-05 
 3.74000000e+00  3.74410797e+00  3.74000000e+00  8.14370135e-05 
 3.75000000e+00  3.75415013e+00  3.75000000e+00  8.09345719e-05 
 3.76000000e+00  3.76419474e+00  3.76000000e+00  8.04181670e-05 
 3.77000000e+00  3.77424193e+00  3.77000000e+00  7.98886015e-05 
 3.78000000e+00  3.78429182e+00  3.78000000e+00  7.93467290e-05 
 3.79000000e+00  3.79434453e+00  3.79000000e+00  7.87934569e-05 
 3.80000000e+00  3.80440024e+00  3.80000000e+00  7.82297492e-05 
 3.81000000e+00  3.81445908e+00  3.81000000e+00  7.76566307e-05 
 3.82000000e+00  3.82452126e+00  3.82000000e+00  7.70751909e-05 
 3.83000000e+00  3.83458696e+00  3.83000000e+00  7.64865884e-05 
 3.84000000e+00  3.84465640e+00  3.84000000e+00  7.58920558e-05 
 3.85000000e+00  3.85472981e+00  3.85000000e+00  7.52929048e-05 
 3.86000000e+00  3.86480743e+00  3.86000000e+00  7.46905311e-05 
 3.87000000e+00  3.87488953e+00  3.87000000e+00  7.40864189e-05 
 3.88000000e+00  3.88497638e+00  3.88000000e+00  7.34821454e-05 
 3.89000000e+00  3.89506828e+00  3.89000000e+00  7.28793841e-05 
 3.90000000e+00  3.90516552e+00  3.90000000e+00  7.22799065e-05 
 3.91000000e+00  3.91526839e+00  3.91000000e+00  7.16855817e-05 
 3.92000000e+00  3.92537717e+00  3.92000000e+00  7.10983735e-05 
 3.93000000e+00  3.93549213e+00  3.93000000e+00  7.05203329e-05 
 3.94000000e+00  3.94561349e+00  3.94000000e+00  6.99535844e-05 
 3.95000000e+00  3.95574133e+00  3.95000000e+00  6.94003129e-05 
 3.96000000e+00  3.96587577e+00  3.96000000e+00  6.88627254e-05 
 3.97000000e+00  3.97601668e+00  3.97000000e+00  6.83430263e-05 
 3.98000000e+00  3.98616379e+00  3.98000000e+00  6.78433659e-05 
 3.99000000e+00  3.99631661e+00  3.99000000e+00  6.73657857e-05 
 4.00000000e+00  4.00647434e+00  4.00000000e+00  6.69121541e-05 
 4.01000000e+00  4.01663589e+00  4.01000000e+00  6.64840962e-05 
 4.02000000e+00  4.02679981e+00  4.02000000e+00  6.60829222e-05 
 4.03000000e+00  4.03696428e+00  4.03000000e+00  6.57095615e-05 
 4.04000000e+00  4.04712715e+00  4.04000000e+00  6.53645090e-05 
 4.05000000e+00  4.05728601e+00  4.05000000e+00  6.50477921e-05 
 4.06000000e+00  4.06743828e+00  4.06000000e+00  6.47589639e-05 
 4.07000000e+00  4.07758137e+00  4.07000000e+00  6.44971252e-05 
 4.08000000e+00  4.08771291e+00  4.08000000e+00  6.42609742e-05 
 4.09000000e+00  4.09783085e+00  4.09000000e+00  6.40488795e-05 
 4.10000000e+00  4.10793375e+00  4.10000000e+00  6.38589661e-05 
 4.11000000e+00  4.11802082e+00  4.11000000e+00  6.36892073e-05 
 4.12000000e+00  4.12809207e+00  4.12000000e+00  6.35375114e-05 
 4.13000000e+00  4.13814825e+00  4.13000000e+00  6.34017981e-05 
 4.14000000e+00  4.14819083e+00  4.14000000e+00  6.32800593e-05 
 4.15000000e+00  4.15822187e+00  4.15000000e+00  6.31704041e-05 
 4.16000000e+00  4.16824247e+00  4.16000000e+00  6.30710936e-05 
 4.17000000e+00  4.17825930e+00  4.17000000e+00  6.29805268e-05 
 4.18000000e+00  4.18827099e+00  4.18000000e+00  6.28973066e-05 
 4.19000000e+00  4.19828140e+00  4.19000000e+00  6.28201758e-05 
 4.20000000e+00  4.20829272e+00  4.20000000e+00  6.27480396e-05 
 4.21000000e+00  4.21830682e+00  4.21000000e+00  6.26799477e-05 
 4.22000000e+00  4.22832511e+00  4.22000000e+00  6.26150808e-05 
 4.23000000e+00  4.23834865e+00  4.23000000e+00  6.25527362e-05 
 4.24000000e+00  4.24837815e+00  4.24000000e+00  6.24923136e-05 
 4.25000000e+00  4.25841404e+00  4.25000000e+00  6.24333014e-05 
 4.26000000e+00  4.26845652e+00  4.26000000e+00  6.23752638e-05 
 4.27000000e+00  4.27850571e+00  4.27000000e+00  6.23178293e-05 
 4.28000000e+00  4.28856165e+00  4.28000000e+00  6.22606803e-05 
 4.29000000e+00  4.29862440e+00  4.29000000e+00  6.22035433e-05 
 4.30000000e+00  4.30869407e+00  4.30000000e+00  6.21461812e-05 
 4.31000000e+00  4.31877090e+00  4.31000000e+00  6.20883856e-05 
 4.32000000e+00  4.32885528e+00  4.32000000e+00  6.20299703e-05 
 4.33000000e+00  4.33889097e+00  4.33000000e+00  6.19711235e-05 
 4.34000000e+00  4.34904943e+00  4.34000000e+00  6.19106137e-05 
 4.35000000e+00  4.35916127e+00  4.35000000e+00  6.18493624e-05 
 4.36000000e+00  4.36928497e+00  4.36000000e+00  6.17868618e-05 
 4.37000000e+00  4.37942265e+00  4.37000000e+00  6.17229592e-05 
 4.38000000e+00  4.38957705e+00  4.38000000e+00  6.16574941e-05 
 4.39000000e+00  4.39975176e+00  4.39000000e+00  6.15902927e-05 
 4.40000000e+00  4.40995125e+00  4.40000000e+00  6.15211630e-05 
 4.41000000e+00  4.42018143e+00  4.41000000e+00  6.14498848e-05 
 4.42000000e+00  4.43044967e+00  4.42000000e+00  6.13762036e-05 
 4.43000000e+00  4.44076541e+00  4.43000000e+00  6.12998168e-05 
 4.44000000e+00  4.45114135e+00  4.44000000e+00  6.12203537e-05 
 4.45000000e+00  4.46159250e+00  4.45000000e+00  6.11373681e-05 
 4.46000000e+00  4.47213930e+00  4.46000000e+00  6.10502922e-05 
 4.47000000e+00  4.48280922e+00  4.47000000e+00  6.09583901e-05 
 4.48000000e+00  4.49363173e+00  4.48000000e+00  6.08607734e-05 
 4.49000000e+00  4.50465609e+00  4.49000000e+00  6.07561538e-05 
 4.50000000e+00  4.51594045e+00  4.50000000e+00  6.06428664e-05 
 4.51000000e+00  4.52756323e+00  4.51000000e+00  6.05186116e-05 
 4.52000000e+00  4.53962625e+00  4.52000000e+00  6.03802311e-05 
 4.53000000e+00  4.55271190e+00  4.53000000e+00  6.02151403e-05 
 4.54000000e+00  4.56652310e+00  4.54000000e+00  6.00235052e-05 
 4.55000000e+00  4.58175602e+00  4.55000000e+00  5.97849472e-05 
 4.56000000e+00  4.59904889e+00  4.56000000e+00  5.94719278e-05 
 4.57000000e+00  4.62063672e+00  4.57000000e+00  5.89940791e-05 
 4.58000000e+00  4.65190290e+00  4.58000000e+00  5.80664398e-05 
 4.59000000e+00  4.72999958e+00  4.59000000e+00  5.39472978e-05 
 4.60000000e+00  4.99845274e+00  4.60000000e+00  1.32496696e-05 
 4.61000000e+00  4.99992596e+00  4.61000000e+00  1.29040938e-05 
 4.62000000e+00  4.99999210e+00  4.62000000e+00  1.28885660e-05 
 4.63000000e+00  4.99999839e+00  4.63000000e+00  1.28870901e-05 
 4.64000000e+00  4.99999944e+00  4.64000000e+00  1.28868430e-05 
 4.65000000e+00  4.99999971e+00  4.65000000e+00  1.28867785e-05 
 4.66000000e+00  4.99999980e+00  4.66000000e+00  1.28867568e-05 
 4.67000000e+00  4.99999984e+00  4.67000000e+00  1.28867468e-05 
 4.68000000e+00  4.99999986e+00  4.68000000e+00  1.28867416e-05 
 4.69000000e+00  4.99999987e+00  4.69000000e+00  1.28867385e-05 
 4.70000000e+00  4.99999988e+00  4.70000000e+00  1.28867366e-05 
 4.71000000e+00  4.99999988e+00  4.71000000e+00  1.28867353e-05 
 4.72000000e+00  4.99999989e+00  4.72000000e+00  1.28867345e-05 
 4.73000000e+00  4.99999989e+00  4.73000000e+00  1.28867340e-05 
 4.74000000e+00  4.99999989e+00  4.74000000e+00  1.28867336e-05 
 4.75000000e+00  4.99999989e+00  4.75000000e+00  1.28867334e-05 
 4.76000000e+00  4.99999989e+00  4.76000000e+00  1.28867334e-05 
 4.77000000e+00  4.99999989e+00  4.77000000e+00  1.28867334e-05 
 4.78000000e+00  4.99999989e+00  4.78000000e+00  1.28867335e-05 
 4.79000000e+00  4.99999989e+00  4.79000000e+00  1.28867337e-05 
 4.80000000e+00  4.99999989e+00  4.80000000e+00  1.28867339e-05 
 4.81000000e+00  4.99999989e+00  4.81000000e+00  1.28867342e-05 
 4.82000000e+00  4.99999989e+00  4.82000000e+00  1.28867345e-05 
 4.83000000e+00  4.99999989e+00  4.83000000e+00  1.28867349e-05 
 4.84000000e+00  4.99999988e+00  4.84000000e+00  1.28867353e-05 
 4.85000000e+00  4.99999988e+00  4.85000000e+00  1.28867358e-05 
 4.86000000e+00  4.99999988e+00  4.86000000e+00  1.28867363e-05 
 4.87000000e+00  4.99999988e+00  4.87000000e+00  1.28867369e-05 
 4.88000000e+00  4.99999988e+00  4.88000000e+00  1.28867375e-05 
 4.89000000e+00  4.99999987e+00  4.89000000e+00  1.28867382e-05 
 4.90000000e+00  4.99999987e+00  4.90000000e+00  1.28867389e-05 
 4.91000000e+00  4.99999987e+00  4.91000000e+00  1.28867397e-05 
 4.92000000e+00  4.99999986e+00  4.92000000e+00  1.28867405e-05 
 4.93000000e+00  4.99999986e+00  4.93000000e+00  1.28867414e-05 
 4.94000000e+00  4.99999986e+00  4.94000000e+00  1.28867425e-05 
 4.95000000e+00  4.99999985e+00  4.95000000e+00  1.28867435e-05 
 4.96000000e+00  4.99999985e+00  4.96000000e+00  1.28867447e-05 
 4.97000000e+00  4.99999984e+00  4.97000000e+00  1.28867460e-05 
 4.98000000e+00  4.99999984e+00  4.98000000e+00  1.28867474e-05 
 4.99000000e+00  4.99999983e+00  4.99000000e+00  1.28867490e-05 
 5.00000000e+00  4.99999982e+00  5.00000000e+00  1.28867506e-05 
