 0.00000000e+00  1.05511858e-01  0.00000000e+00  1.10694495e-04 
 1.00000000e-02  1.06322288e-01  1.00000000e-02  1.10691290e-04 
 2.00000000e-02  1.07238944e-01  2.00000000e-02  1.10687666e-04 
 3.00000000e-02  1.08283132e-01  3.00000000e-02  1.10683541e-04 
 4.00000000e-02  1.09482000e-01  4.00000000e-02  1.10678809e-04 
 5.00000000e-02  1.10870605e-01  5.00000000e-02  1.10673333e-04 
 6.00000000e-02  1.12494846e-01  6.00000000e-02  1.10666934e-04 
 7.00000000e-02  1.14415643e-01  7.00000000e-02  1.10659377e-04 
 8.00000000e-02  1.16714822e-01  8.00000000e-02  1.10650344e-04 
 9.00000000e-02  1.19502966e-01  9.00000000e-02  1.10639411e-04 
 1.00000000e-01  1.22928328e-01  1.00000000e-01  1.10626008e-04 
 1.10000000e-01  1.27181566e-01  1.10000000e-01  1.10609414e-04 
 1.20000000e-01  1.32479605e-01  1.20000000e-01  1.10588818e-04 
 1.30000000e-01  1.38996249e-01  1.30000000e-01  1.10563603e-04 
 1.40000000e-01  1.46733309e-01  1.40000000e-01  1.10533843e-04 
 1.50000000e-01  1.55451876e-01  1.50000000e-01  1.10500551e-04 
 1.60000000e-01  1.64798100e-01  1.60000000e-01  1.10465166e-04 
 1.70000000e-01  1.74482990e-01  1.70000000e-01  1.10428847e-04 
 1.80000000e-01  1.84335542e-01  1.80000000e-01  1.10392277e-04 
 1.90000000e-01  1.94269298e-01  1.90000000e-01  1.10355802e-04 
 2.00000000e-01  2.04242962e-01  2.00000000e-01  1.10319588e-04 
 2.10000000e-01  2.14236889e-01  2.10000000e-01  1.10283711e-04 
 2.20000000e-01  2.24241517e-01  2.20000000e-01  1.10248208e-04 
 2.30000000e-01  2.34252012e-01  2.30000000e-01  1.10213094e-04 
 2.40000000e-01  2.44265811e-01  2.40000000e-01  1.10178376e-04 
 2.50000000e-01  2.54281482e-01  2.50000000e-01  1.10144052e-04 
 2.60000000e-01  2.64298177e-01  2.60000000e-01  1.10110121e-04 
 2.70000000e-01  2.74315375e-01  2.70000000e-01  1.10076578e-04 
 2.80000000e-01  2.84332738e-01  2.80000000e-01  1.10043418e-04 
 2.90000000e-01  2.94350044e-01  2.90000000e-01  1.10010634e-04 
 3.00000000e-01  3.04367142e-01  3.00000000e-01  1.09978220e-04 
 3.10000000e-01  3.14383931e-01  3.10000000e-01  1.09946169e-04 
 3.20000000e-01  3.24400345e-01  3.20000000e-01  1.09914474e-04 
 3.30000000e-01  3.34416341e-01  3.30000000e-01  1.09883129e-04 
 3.40000000e-01  3.44431892e-01  3.40000000e-01  1.09852126e-04 
 3.50000000e-01  3.54446984e-01  3.50000000e-01  1.09821458e-04 
 3.60000000e-01  3.64461613e-01  3.60000000e-01  1.09791118e-04 
 3.70000000e-01  3.74475780e-01  3.70000000e-01  1.09761100e-04 
 3.80000000e-01  3.84489490e-01  3.80000000e-01  1.09731396e-04 
 3.90000000e-01  3.94502754e-01  3.90000000e-01  1.09701999e-04 
 4.00000000e-01  4.04515583e-01  4.00000000e-01  1.09672903e-04 
 4.10000000e-01  4.14527989e-01  4.10000000e-01  1.09644101e-04 
 4.20000000e-01  4.24539987e-01  4.20000000e-01  1.09615586e-04 
 4.30000000e-01  4.34551590e-01  4.30000000e-01  1.09587352e-04 
 4.40000000e-01  4.44562815e-01  4.40000000e-01  1.09559392e-04 
 4.50000000e-01  4.54573674e-01  4.50000000e-01  1.09531700e-04 
 4.60000000e-01  4.64584182e-01  4.60000000e-01  1.09504270e-04 
 4.70000000e-01  4.74594354e-01  4.70000000e-01  1.09477095e-04 
 4.80000000e-01  4.84604204e-01  4.80000000e-01  1.09450170e-04 
 4.90000000e-01  4.94613744e-01  4.90000000e-01  1.09423487e-04 
 5.00000000e-01  5.04622987e-01  5.00000000e-01  1.09397043e-04 
 5.10000000e-01  5.14631946e-01  5.10000000e-01  1.09370830e-04 
 5.20000000e-01  5.24640632e-01  5.20000000e-01  1.09344843e-04 
 5.30000000e-01  5.34649057e-01  5.30000000e-01  1.09319076e-04 
 5.40000000e-01  5.44657232e-01  5.40000000e-01  1.09293523e-04 
 5.50000000e-01  5.54665166e-01  5.50000000e-01  1.09268180e-04 
 5.60000000e-01  5.64672870e-01  5.60000000e-01  1.09243041e-04 
 5.70000000e-01  5.74680353e-01  5.70000000e-01  1.09218100e-04 
 5.80000000e-01  5.84687624e-01  5.80000000e-01  1.09193352e-04 
 5.90000000e-01  5.94694692e-01  5.90000000e-01  1.09168792e-04 
 6.00000000e-01  6.04701565e-01  6.00000000e-01  1.09144415e-04 
 6.10000000e-01  6.14708249e-01  6.10000000e-01  1.09120216e-04 
 6.20000000e-01  6.24714754e-01  6.20000000e-01  1.09096190e-04 
 6.30000000e-01  6.34721085e-01  6.30000000e-01  1.09072333e-04 
 6.40000000e-01  6.44727250e-01  6.40000000e-01  1.09048639e-04 
 6.50000000e-01  6.54733255e-01  6.50000000e-01  1.09025104e-04 
 6.60000000e-01  6.64739105e-01  6.60000000e-01  1.09001723e-04 
 6.70000000e-01  6.74744808e-01  6.70000000e-01  1.08978492e-04 
 6.80000000e-01  6.84750367e-01  6.80000000e-01  1.08955406e-04 
 6.90000000e-01  6.94755790e-01  6.90000000e-01  1.08932461e-04 
 7.00000000e-01  7.04761079e-01  7.00000000e-01  1.08909653e-04 
 7.10000000e-01  7.14766241e-01  7.10000000e-01  1.08886977e-04 
 7.20000000e-01  7.24771280e-01  7.20000000e-01  1.08864429e-04 
 7.30000000e-01  7.34776201e-01  7.30000000e-01  1.08842006e-04 
 7.40000000e-01  7.44781006e-01  7.40000000e-01  1.08819703e-04 
 7.50000000e-01  7.54785702e-01  7.50000000e-01  1.08797516e-04 
 7.60000000e-01  7.64790290e-01  7.60000000e-01  1.08775441e-04 
 7.70000000e-01  7.74794776e-01  7.70000000e-01  1.08753476e-04 
 7.80000000e-01  7.84799162e-01  7.80000000e-01  1.08731615e-04 
 7.90000000e-01  7.94803451e-01  7.90000000e-01  1.08709855e-04 
 8.00000000e-01  8.04807648e-01  8.00000000e-01  1.08688193e-04 
 8.10000000e-01  8.14811755e-01  8.10000000e-01  1.08666624e-04 
 8.20000000e-01  8.24815775e-01  8.20000000e-01  1.08645147e-04 
 8.30000000e-01  8.34819710e-01  8.30000000e-01  1.08623757e-04 
 8.40000000e-01  8.44823565e-01  8.40000000e-01  1.08602450e-04 
 8.50000000e-01  8.54827340e-01  8.50000000e-01  1.08581224e-04 
 8.60000000e-01  8.64831039e-01  8.60000000e-01  1.08560075e-04 
 8.70000000e-01  8.74834664e-01  8.70000000e-01  1.08539000e-04 
 8.80000000e-01  8.84838217e-01  8.80000000e-01  1.08517997e-04 
 8.90000000e-01  8.94841701e-01  8.90000000e-01  1.08497061e-04 
 9.00000000e-01  9.04845118e-01  9.00000000e-01  1.08476190e-04 
 9.10000000e-01  9.14848469e-01  9.10000000e-01  1.08455381e-04 
 9.20000000e-01  9.24851757e-01  9.20000000e-01  1.08434632e-04 
 9.30000000e-01  9.34854983e-01  9.30000000e-01  1.08413938e-04 
 9.40000000e-01  9.44858149e-01  9.40000000e-01  1.08393298e-04 
 9.50000000e-01  9.54861258e-01  9.50000000e-01  1.08372709e-04 
 9.60000000e-01  9.64864311e-01  9.60000000e-01  1.08352167e-04 
 9.70000000e-01  9.74867308e-01  9.70000000e-01  1.08331672e-04 
 9.80000000e-01  9.84870253e-01  9.80000000e-01  1.08311218e-04 
 9.90000000e-01  9.94873146e-01  9.90000000e-01  1.08290806e-04 
 1.00000000e+00  1.00487599e+00  1.00000000e+00  1.08270430e-04 
 1.01000000e+00  1.01487878e+00  1.01000000e+00  1.08250091e-04 
 1.02000000e+00  1.02488153e+00  1.02000000e+00  1.08229784e-04 
 1.03000000e+00  1.03488423e+00  1.03000000e+00  1.08209508e-04 
 1.04000000e+00  1.04488689e+00  1.04000000e+00  1.08189260e-04 
 1.05000000e+00  1.05488950e+00  1.05000000e+00  1.08169038e-04 
 1.06000000e+00  1.06489207e+00  1.06000000e+00  1.08148840e-04 
 1.07000000e+00  1.07489460e+00  1.07000000e+00  1.08128663e-04 
 1.08000000e+00  1.08489709e+00  1.08000000e+00  1.08108506e-04 
 1.09000000e+00  1.09489954e+00  1.09000000e+00  1.08088367e-04 
 1.10000000e+00  1.10490195e+00  1.10000000e+00  1.08068243e-04 
 1.11000000e+00  1.11490432e+00  1.11000000e+00  1.08048132e-04 
 1.12000000e+00  1.12490666e+00  1.12000000e+00  1.08028032e-04 
 1.13000000e+00  1.13490896e+00  1.13000000e+00  1.08007942e-04 
 1.14000000e+00  1.14491123e+00  1.14000000e+00  1.07987859e-04 
 1.15000000e+00  1.15491347e+00  1.15000000e+00  1.07967782e-04 
 1.16000000e+00  1.16491567e+00  1.16000000e+00  1.07947709e-04 
 1.17000000e+00  1.17491784e+00  1.17000000e+00  1.07927638e-04 
 1.18000000e+00  1.18491998e+00  1.18000000e+00  1.07907567e-04 
 1.19000000e+00  1.19492209e+00  1.19000000e+00  1.07887494e-04 
 1.20000000e+00  1.20492417e+00  1.20000000e+00  1.07867419e-04 
 1.21000000e+00  1.21492622e+00  1.21000000e+00  1.07847338e-04 
 1.22000000e+00  1.22492825e+00  1.22000000e+00  1.07827251e-04 
 1.23000000e+00  1.23493024e+00  1.23000000e+00  1.07807157e-04 
 1.24000000e+00  1.24493221e+00  1.24000000e+00  1.07787052e-04 
 1.25000000e+00  1.25493415e+00  1.25000000e+00  1.07766936e-04 
 1.26000000e+00  1.26493607e+00  1.26000000e+00  1.07746808e-04 
 1.27000000e+00  1.27493796e+00  1.27000000e+00  1.07726665e-04 
 1.28000000e+00  1.28493983e+00  1.28000000e+00  1.07706507e-04 
 1.29000000e+00  1.29494168e+00  1.29000000e+00  1.07686332e-04 
 1.30000000e+00  1.30494350e+00  1.30000000e+00  1.07666138e-04 
 1.31000000e+00  1.31494530e+00  1.31000000e+00  1.07645924e-04 
 1.32000000e+00  1.32494708e+00  1.32000000e+00  1.07625689e-04 
 1.33000000e+00  1.33494883e+00  1.33000000e+00  1.07605432e-04 
 1.34000000e+00  1.34495057e+00  1.34000000e+00  1.07585151e-04 
 1.35000000e+00  1.35495228e+00  1.35000000e+00  1.07564845e-04 
 1.36000000e+00  1.36495398e+00  1.36000000e+00  1.07544512e-04 
 1.37000000e+00  1.37495565e+00  1.37000000e+00  1.07524152e-04 
 1.38000000e+00  1.38495730e+00  1.38000000e+00  1.07503763e-04 
 1.39000000e+00  1.39495894e+00  1.39000000e+00  1.07483343e-04 
 1.40000000e+00  1.40496056e+00  1.40000000e+00  1.07462893e-04 
 1.41000000e+00  1.41496216e+00  1.41000000e+00  1.07442410e-04 
 1.42000000e+00  1.42496374e+00  1.42000000e+00  1.07421894e-04 
 1.43000000e+00  1.43496531e+00  1.43000000e+00  1.07401343e-04 
 1.44000000e+00  1.44496686e+00  1.44000000e+00  1.07380756e-04 
 1.45000000e+00  1.45496839e+00  1.45000000e+00  1.07360133e-04 
 1.46000000e+00  1.46496990e+00  1.46000000e+00  1.07339471e-04 
 1.47000000e+00  1.47497141e+00  1.47000000e+00  1.07318771e-04 
 1.48000000e+00  1.48497289e+00  1.48000000e+00  1.07298030e-04 
 1.49000000e+00  1.49497436e+00  1.49000000e+00  1.07277248e-04 
 1.50000000e+00  1.50497582e+00  1.50000000e+00  1.07256425e-04 
 1.51000000e+00  1.51497726e+00  1.51000000e+00  1.07235558e-04 
 1.52000000e+00  1.52497869e+00  1.52000000e+00  1.07214647e-04 
 1.53000000e+00  1.53498010e+00  1.53000000e+00  1.07193692e-04 
 1.54000000e+00  1.54498150e+00  1.54000000e+00  1.07172690e-04 
 1.55000000e+00  1.55498289e+00  1.55000000e+00  1.07151641e-04 
 1.56000000e+00  1.56498426e+00  1.56000000e+00  1.07130545e-04 
 1.57000000e+00  1.57498563e+00  1.57000000e+00  1.07109399e-04 
 1.58000000e+00  1.58498698e+00  1.58000000e+00  1.07088204e-04 
 1.59000000e+00  1.59498832e+00  1.59000000e+00  1.07066959e-04 
 1.60000000e+00  1.60498964e+00  1.60000000e+00  1.07045661e-04 
 1.61000000e+00  1.61499096e+00  1.61000000e+00  1.07024312e-04 
 1.62000000e+00  1.62499226e+00  1.62000000e+00  1.07002909e-04 
 1.63000000e+00  1.63499355e+00  1.63000000e+00  1.06981451e-04 
 1.64000000e+00  1.64499484e+00  1.64000000e+00  1.06959939e-04 
 1.65000000e+00  1.65499611e+00  1.65000000e+00  1.06938371e-04 
 1.66000000e+00  1.66499737e+00  1.66000000e+00  1.06916746e-04 
 1.67000000e+00  1.67499862e+00  1.67000000e+00  1.06895063e-04 
 1.68000000e+00  1.68499986e+00  1.68000000e+00  1.06873322e-04 
 1.69000000e+00  1.69500110e+00  1.69000000e+00  1.06851522e-04 
 1.70000000e+00  1.70500232e+00  1.70000000e+00  1.06829661e-04 
 1.71000000e+00  1.71500353e+00  1.71000000e+00  1.06807740e-04 
 1.72000000e+00  1.72500474e+00  1.72000000e+00  1.06785756e-04 
 1.73000000e+00  1.73500593e+00  1.73000000e+00  1.06763710e-04 
 1.74000000e+00  1.74500712e+00  1.74000000e+00  1.06741600e-04 
 1.75000000e+00  1.75500830e+00  1.75000000e+00  1.06719426e-04 
 1.76000000e+00  1.76500947e+00  1.76000000e+00  1.06697187e-04 
 1.77000000e+00  1.77501064e+00  1.77000000e+00  1.06674882e-04 
 1.78000000e+00  1.78501179e+00  1.78000000e+00  1.06652510e-04 
 1.79000000e+00  1.79501294e+00  1.79000000e+00  1.06630071e-04 
 1.80000000e+00  1.80501408e+00  1.80000000e+00  1.06607563e-04 
 1.81000000e+00  1.81501522e+00  1.81000000e+00  1.06584986e-04 
 1.82000000e+00  1.82501634e+00  1.82000000e+00  1.06562339e-04 
 1.83000000e+00  1.83501746e+00  1.83000000e+00  1.06539621e-04 
 1.84000000e+00  1.84501858e+00  1.84000000e+00  1.06516831e-04 
 1.85000000e+00  1.85501968e+00  1.85000000e+00  1.06493969e-04 
 1.86000000e+00  1.86502078e+00  1.86000000e+00  1.06471033e-04 
 1.87000000e+00  1.87502188e+00  1.87000000e+00  1.06448023e-04 
 1.88000000e+00  1.88502297e+00  1.88000000e+00  1.06424939e-04 
 1.89000000e+00  1.89502405e+00  1.89000000e+00  1.06401778e-04 
 1.90000000e+00  1.90502513e+00  1.90000000e+00  1.06378540e-04 
 1.91000000e+00  1.91502620e+00  1.91000000e+00  1.06355225e-04 
 1.92000000e+00  1.92502726e+00  1.92000000e+00  1.06331832e-04 
 1.93000000e+00  1.93502832e+00  1.93000000e+00  1.06308359e-04 
 1.94000000e+00  1.94502938e+00  1.94000000e+00  1.06284806e-04 
 1.95000000e+00  1.95503043e+00  1.95000000e+00  1.06261172e-04 
 1.96000000e+00  1.96503147e+00  1.96000000e+00  1.06237456e-04 
 1.97000000e+00  1.97503252e+00  1.97000000e+00  1.06213657e-04 
 1.98000000e+00  1.98503355e+00  1.98000000e+00  1.06189775e-04 
 1.99000000e+00  1.99503458e+00  1.99000000e+00  1.06165808e-04 
 2.00000000e+00  2.00503561e+00  2.00000000e+00  1.06141756e-04 
 2.01000000e+00  2.01503664e+00  2.01000000e+00  1.06117617e-04 
 2.02000000e+00  2.02503766e+00  2.02000000e+00  1.06093390e-04 
 2.03000000e+00  2.03503867e+00  2.03000000e+00  1.06069076e-04 
 2.04000000e+00  2.04503968e+00  2.04000000e+00  1.06044672e-04 
 2.05000000e+00  2.05504069e+00  2.05000000e+00  1.06020178e-04 
 2.06000000e+00  2.06504170e+00  2.06000000e+00  1.05995593e-04 
 2.07000000e+00  2.07504270e+00  2.07000000e+00  1.05970916e-04 
 2.08000000e+00  2.08504370e+00  2.08000000e+00  1.05946146e-04 
 2.09000000e+00  2.09504469e+00  2.09000000e+00  1.05921281e-04 
 2.10000000e+00  2.10504568e+00  2.10000000e+00  1.05896322e-04 
 2.11000000e+00  2.11504667e+00  2.11000000e+00  1.05871266e-04 
 2.12000000e+00  2.12504766e+00  2.12000000e+00  1.05846113e-04 
 2.13000000e+00  2.13504864e+00  2.13000000e+00  1.05820862e-04 
 2.14000000e+00  2.14504962e+00  2.14000000e+00  1.05795511e-04 
 2.15000000e+00  2.15505060e+00  2.15000000e+00  1.05770060e-04 
 2.16000000e+00  2.16505158e+00  2.16000000e+00  1.05744507e-04 
 2.17000000e+00  2.17505256e+00  2.17000000e+00  1.05718852e-04 
 2.18000000e+00  2.18505353e+00  2.18000000e+00  1.05693093e-04 
 2.19000000e+00  2.19505450e+00  2.19000000e+00  1.05667229e-04 
 2.20000000e+00  2.20505547e+00  2.20000000e+00  1.05641259e-04 
 2.21000000e+00  2.21505643e+00  2.21000000e+00  1.05615181e-04 
 2.22000000e+00  2.22505740e+00  2.22000000e+00  1.05588996e-04 
 2.23000000e+00  2.23505836e+00  2.23000000e+00  1.05562700e-04 
 2.24000000e+00  2.24505933e+00  2.24000000e+00  1.05536293e-04 
 2.25000000e+00  2.25506029e+00  2.25000000e+00  1.05509774e-04 
 2.26000000e+00  2.26506125e+00  2.26000000e+00  1.05483142e-04 
 2.27000000e+00  2.27506221e+00  2.27000000e+00  1.05456395e-04 
 2.28000000e+00  2.28506317e+00  2.28000000e+00  1.05429531e-04 
 2.29000000e+00  2.29506413e+00  2.29000000e+00  1.05402550e-04 
 2.30000000e+00  2.30506508e+00  2.30000000e+00  1.05375451e-04 
 2.31000000e+00  2.31506604e+00  2.31000000e+00  1.05348230e-04 
 2.32000000e+00  2.32506700e+00  2.32000000e+00  1.05320889e-04 
 2.33000000e+00  2.33506795e+00  2.33000000e+00  1.05293424e-04 
 2.34000000e+00  2.34506891e+00  2.34000000e+00  1.05265834e-04 
 2.35000000e+00  2.35506986e+00  2.35000000e+00  1.05238118e-04 
 2.36000000e+00  2.36507082e+00  2.36000000e+00  1.05210274e-04 
 2.37000000e+00  2.37507177e+00  2.37000000e+00  1.05182301e-04 
 2.38000000e+00  2.38507273e+00  2.38000000e+00  1.05154198e-04 
 2.39000000e+00  2.39507369e+00  2.39000000e+00  1.05125961e-04 
 2.40000000e+00  2.40507464e+00  2.40000000e+00  1.05097591e-04 
 2.41000000e+00  2.41507560e+00  2.41000000e+00  1.05069085e-04 
 2.42000000e+00  2.42507656e+00  2.42000000e+00  1.05040441e-04 
 2.43000000e+00  2.43507752e+00  2.43000000e+00  1.05011658e-04 
 2.44000000e+00  2.44507848e+00  2.44000000e+00  1.04982734e-04 
 2.45000000e+00  2.45507944e+00  2.45000000e+00  1.04953667e-04 
 2.46000000e+00  2.46508040e+00  2.46000000e+00  1.04924455e-04 
 2.47000000e+00  2.47508136e+00  2.47000000e+00  1.04895096e-04 
 2.48000000e+00  2.48508233e+00  2.48000000e+00  1.04865589e-04 
 2.49000000e+00  2.49508330e+00  2.49000000e+00  1.04835931e-04 
 2.50000000e+00  2.50508426e+00  2.50000000e+00  1.04806121e-04 
 2.51000000e+00  2.51508523e+00  2.51000000e+00  1.04776155e-04 
 2.52000000e+00  2.52508621e+00  2.52000000e+00  1.04746033e-04 
 2.53000000e+00  2.53508718e+00  2.53000000e+00  1.04715752e-04 
 2.54000000e+00  2.54508816e+00  2.54000000e+00  1.04685309e-04 
 2.55000000e+00  2.55508913e+00  2.55000000e+00  1.04654703e-04 
 2.56000000e+00  2.56509011e+00  2.56000000e+00  1.04623932e-04 
 2.57000000e+00  2.57509110e+00  2.57000000e+00  1.04592992e-04 
 2.58000000e+00  2.58509208e+00  2.58000000e+00  1.04561881e-04 
 2.59000000e+00  2.59509307e+00  2.59000000e+00  1.04530597e-04 
 2.60000000e+00  2.60509407e+00  2.60000000e+00  1.04499138e-04 
 2.61000000e+00  2.61509506e+00  2.61000000e+00  1.04467500e-04 
 2.62000000e+00  2.62509606e+00  2.62000000e+00  1.04435682e-04 
 2.63000000e+00  2.63509706e+00  2.63000000e+00  1.04403679e-04 
 2.64000000e+00  2.64509807e+00  2.64000000e+00  1.04371491e-04 
 2.65000000e+00  2.65509908e+00  2.65000000e+00  1.04339113e-04 
 2.66000000e+00  2.66510009e+00  2.66000000e+00  1.04306542e-04 
 2.67000000e+00  2.67510111e+00  2.67000000e+00  1.04273777e-04 
 2.68000000e+00  2.68510213e+00  2.68000000e+00  1.04240813e-04 
 2.69000000e+00  2.69510316e+00  2.69000000e+00  1.04207647e-04 
 2.70000000e+00  2.70510419e+00  2.70000000e+00  1.04174277e-04 
 2.71000000e+00  2.71510522e+00  2.71000000e+00  1.04140698e-04 
 2.72000000e+00  2.72510626e+00  2.72000000e+00  1.04106908e-04 
 2.73000000e+00  2.73510731e+00  2.73000000e+00  1.04072903e-04 
 2.74000000e+00  2.74510836e+00  2.74000000e+00  1.04038678e-04 
 2.75000000e+00  2.75510942e+00  2.75000000e+00  1.04004232e-04 
 2.76000000e+00  2.76511048e+00  2.76000000e+00  1.03969558e-04 
 2.77000000e+00  2.77511155e+00  2.77000000e+00  1.03934655e-04 
 2.78000000e+00  2.78511262e+00  2.78000000e+00  1.03899517e-04 
 2.79000000e+00  2.79511370e+00  2.79000000e+00  1.03864140e-04 
 2.80000000e+00  2.80511479e+00  2.80000000e+00  1.03828520e-04 
 2.81000000e+00  2.81511588e+00  2.81000000e+00  1.03792653e-04 
 2.82000000e+00  2.82511698e+00  2.82000000e+00  1.03756534e-04 
 2.83000000e+00  2.83511809e+00  2.83000000e+00  1.03720158e-04 
 2.84000000e+00  2.84511921e+00  2.84000000e+00  1.03683520e-04 
 2.85000000e+00  2.85512033e+00  2.85000000e+00  1.03646616e-04 
 2.86000000e+00  2.86512146e+00  2.86000000e+00  1.03609440e-04 
 2.87000000e+00  2.87512260e+00  2.87000000e+00  1.03571986e-04 
 2.88000000e+00  2.88512375e+00  2.88000000e+00  1.03534249e-04 
 2.89000000e+00  2.89512491e+00  2.89000000e+00  1.03496224e-04 
 2.90000000e+00  2.90512608e+00  2.90000000e+00  1.03457904e-04 
 2.91000000e+00  2.91512725e+00  2.91000000e+00  1.03419283e-04 
 2.92000000e+00  2.92512844e+00  2.92000000e+00  1.03380355e-04 
 2.93000000e+00  2.93512964e+00  2.93000000e+00  1.03341113e-04 
 2.94000000e+00  2.94513084e+00  2.94000000e+00  1.03301550e-04 
 2.95000000e+00  2.95513206e+00  2.95000000e+00  1.03261659e-04 
 2.96000000e+00  2.96513329e+00  2.96000000e+00  1.03221432e-04 
 2.97000000e+00  2.97513453e+00  2.97000000e+00  1.03180862e-04 
 2.98000000e+00  2.98513579e+00  2.98000000e+00  1.03139941e-04 
 2.99000000e+00  2.99513705e+00  2.99000000e+00  1.03098660e-04 
 3.00000000e+00  3.00513833e+00  3.00000000e+00  1.03057011e-04 
 3.01000000e+00  3.01513963e+00  3.01000000e+00  1.03014984e-04 
 3.02000000e+00  3.02514093e+00  3.02000000e+00  1.02972571e-04 
 3.03000000e+00  3.03514226e+00  3.03000000e+00  1.02929759e-04 
 3.04000000e+00  3.04514359e+00  3.04000000e+00  1.02886541e-04 
 3.05000000e+00  3.05514495e+00  3.05000000e+00  1.02842904e-04 
 3.06000000e+00  3.06514632e+00  3.06000000e+00  1.02798837e-04 
 3.07000000e+00  3.07514770e+00  3.07000000e+00  1.02754327e-04 
 3.08000000e+00  3.08514911e+00  3.08000000e+00  1.02709364e-04 
 3.09000000e+00  3.09515053e+00  3.09000000e+00  1.02663932e-04 
 3.10000000e+00  3.10515197e+00  3.10000000e+00  1.02618018e-04 
 3.11000000e+00  3.11515344e+00  3.11000000e+00  1.02571607e-04 
 3.12000000e+00  3.12515492e+00  3.12000000e+00  1.02524683e-04 
 3.13000000e+00  3.13515643e+00  3.13000000e+00  1.02477230e-04 
 3.14000000e+00  3.14515796e+00  3.14000000e+00  1.02429230e-04 
 3.15000000e+00  3.15515951e+00  3.15000000e+00  1.02380664e-04 
 3.16000000e+00  3.16516109e+00  3.16000000e+00  1.02331512e-04 
 3.17000000e+00  3.17516269e+00  3.17000000e+00  1.02281752e-04 
 3.18000000e+00  3.18516433e+00  3.18000000e+00  1.02231363e-04 
 3.19000000e+00  3.19516599e+00  3.19000000e+00  1.02180318e-04 
 3.20000000e+00  3.20516769e+00  3.20000000e+00  1.02128592e-04 
 3.21000000e+00  3.21516941e+00  3.21000000e+00  1.02076155e-04 
 3.22000000e+00  3.22517118e+00  3.22000000e+00  1.02022978e-04 
 3.23000000e+00  3.23517298e+00  3.23000000e+00  1.01969025e-04 
 3.24000000e+00  3.24517481e+00  3.24000000e+00  1.01914260e-04 
 3.25000000e+00  3.25517669e+00  3.25000000e+00  1.01858644e-04 
 3.26000000e+00  3.26517862e+00  3.26000000e+00  1.01802130e-04 
 3.27000000e+00  3.27518059e+00  3.27000000e+00  1.01744671e-04 
 3.28000000e+00  3.28518261e+00  3.28000000e+00  1.01686212e-04 
 3.29000000e+00  3.29518469e+00  3.29000000e+00  1.01626693e-04 
 3.30000000e+00  3.30518682e+00  3.30000000e+00  1.01566045e-04 
 3.31000000e+00  3.31518902e+00  3.31000000e+00  1.01504192e-04 
 3.32000000e+00  3.32519129e+00  3.32000000e+00  1.01441049e-04 
 3.33000000e+00  3.33519364e+00  3.33000000e+00  1.01376515e-04 
 3.34000000e+00  3.34519607e+00  3.34000000e+00  1.01310480e-04 
 3.35000000e+00  3.35519859e+00  3.35000000e+00  1.01242813e-04 
 3.36000000e+00  3.36520121e+00  3.36000000e+00  1.01173364e-04 
 3.37000000e+00  3.37520395e+00  3.37000000e+00  1.01101960e-04 
 3.38000000e+00  3.38520681e+00  3.38000000e+00  1.01028396e-04 
 3.39000000e+00  3.39520981e+00  3.39000000e+00  1.00952434e-04 
 3.40000000e+00  3.40521297e+00  3.40000000e+00  1.00873792e-04 
 3.41000000e+00  3.41521632e+00  3.41000000e+00  1.00792139e-04 
 3.42000000e+00  3.42521988e+00  3.42000000e+00  1.00707082e-04 
 3.43000000e+00  3.43522367e+00  3.43000000e+00  1.00618158e-04 
 3.44000000e+00  3.44522775e+00  3.44000000e+00  1.00524822e-04 
 3.45000000e+00  3.45523214e+00  3.45000000e+00  1.00426435e-04 
 3.46000000e+00  3.46523691e+00  3.46000000e+00  1.00322255e-04 
 3.47000000e+00  3.47524210e+00  3.47000000e+00  1.00211428e-04 
 3.48000000e+00  3.48524779e+00  3.48000000e+00  1.00092988e-04 
 3.49000000e+00  3.49525405e+00  3.49000000e+00  9.99658606e-05 
 3.50000000e+00  3.50526096e+00  3.50000000e+00  9.98288800e-05 
 3.51000000e+00  3.51526861e+00  3.51000000e+00  9.96808111e-05 
 3.52000000e+00  3.52527710e+00  3.52000000e+00  9.95203860e-05 
 3.53000000e+00  3.53528651e+00  3.53000000e+00  9.93463446e-05 
 3.54000000e+00  3.54529694e+00  3.54000000e+00  9.91574790e-05 
 3.55000000e+00  3.55530848e+00  3.55000000e+00  9.89526740e-05 
 3.56000000e+00  3.56532121e+00  3.56000000e+00  9.87309412e-05 
 3.57000000e+00  3.57533521e+00  3.57000000e+00  9.84914420e-05 
 3.58000000e+00  3.58535055e+00  3.58000000e+00  9.82334993e-05 
 3.59000000e+00  3.59536729e+00  3.59000000e+00  9.79565993e-05 
 3.60000000e+00  3.60538550e+00  3.60000000e+00  9.76603846e-05 
 3.61000000e+00  3.61540522e+00  3.61000000e+00  9.73446425e-05 
 3.62000000e+00  3.62542650e+00  3.62000000e+00  9.70092899e-05 
 3.63000000e+00  3.63544939e+00  3.63000000e+00  9.66543581e-05 
 3.64000000e+00  3.64547393e+00  3.64000000e+00  9.62799776e-05 
 3.65000000e+00  3.65550016e+00  3.65000000e+00  9.58863648e-05 
 3.66000000e+00  3.66552812e+00  3.66000000e+00  9.54738109e-05 
 3.67000000e+00  3.67555787e+00  3.67000000e+00  9.50426719e-05 
 3.68000000e+00  3.68558945e+00  3.68000000e+00  9.45933613e-05 
 3.69000000e+00  3.69562291e+00  3.69000000e+00  9.41263447e-05 
 3.70000000e+00  3.70565831e+00  3.70000000e+00  9.36421351e-05 
 3.71000000e+00  3.71569572e+00  3.71000000e+00  9.31412904e-05 
 3.72000000e+00  3.72573519e+00  3.72000000e+00  9.26244120e-05 
 3.73000000e+00  3.73577681e+00  3.73000000e+00  9.20921434e-05 
 3.74000000e+00  3.74582066e+00  3.74000000e+00  9.15451712e-05 
 3.75000000e+00  3.75586682e+00  3.75000000e+00  9.09842255e-05 
 3.76000000e+00  3.76591541e+00  3.76000000e+00  9.04100818e-05 
 3.77000000e+00  3.77596654e+00  3.77000000e+00  8.98235633e-05 
 3.78000000e+00  3.78602032e+00  3.78000000e+00  8.92255431e-05 
 3.79000000e+00  3.79607689e+00  3.79000000e+00  8.86169483e-05 
 3.80000000e+00  3.80613641e+00  3.80000000e+00  8.79987631e-05 
 3.81000000e+00  3.81619904e+00  3.81000000e+00  8.73720332e-05 
 3.82000000e+00  3.82626496e+00  3.82000000e+00  8.67378702e-05 
 3.83000000e+00  3.83633437e+00  3.83000000e+00  8.60974564e-05 
 3.84000000e+00  3.84640749e+00  3.84000000e+00  8.54520503e-05 
 3.85000000e+00  3.85648453e+00  3.85000000e+00  8.48029910e-05 
 3.86000000e+00  3.86656577e+00  3.86000000e+00  8.41517042e-05 
 3.87000000e+00  3.87665146e+00  3.87000000e+00  8.34997063e-05 
 3.88000000e+00  3.88674189e+00  3.88000000e+00  8.28486092e-05 
 3.89000000e+00  3.89683736e+00  3.89000000e+00  8.22001235e-05 
 3.90000000e+00  3.90693818e+00  3.90000000e+00  8.15560600e-05 
 3.91000000e+00  3.91704466e+00  3.91000000e+00  8.09183297e-05 
 3.92000000e+00  3.92715709e+00  3.92000000e+00  8.02889400e-05 
 3.93000000e+00  3.93727577e+00  3.93000000e+00  7.96699872e-05 
 3.94000000e+00  3.94740094e+00  3.94000000e+00  7.90636436e-05 
 3.95000000e+00  3.95753279e+00  3.95000000e+00  7.84721377e-05 
 3.96000000e+00  3.96767141e+00  3.96000000e+00  7.78977262e-05 
 3.97000000e+00  3.97781676e+00  3.97000000e+00  7.73426576e-05 
 3.98000000e+00  3.98796865e+00  3.98000000e+00  7.68091244e-05 
 3.99000000e+00  3.99812666e+00  3.99000000e+00  7.62992060e-05 
 4.00000000e+00  4.00829009e+00  4.00000000e+00  7.58148027e-05 
 4.01000000e+00  4.01845796e+00  4.01000000e+00  7.53575634e-05 
 4.02000000e+00  4.02862890e+00  4.02000000e+00  7.49288121e-05 
 4.03000000e+00  4.03880121e+00  4.03000000e+00  7.45294800e-05 
 4.04000000e+00  4.04897282e+00  4.04000000e+00  7.41600498e-05 
 4.05000000e+00  4.05914140e+00  4.05000000e+00  7.38205216e-05 
 4.06000000e+00  4.06930439e+00  4.06000000e+00  7.35104046e-05 
 4.07000000e+00  4.07945922e+00  4.07000000e+00  7.32287393e-05 
 4.08000000e+00  4.08960343e+00  4.08000000e+00  7.29741482e-05 
 4.09000000e+00  4.09973491e+00  4.09000000e+00  7.27449098e-05 
 4.10000000e+00  4.10985203e+00  4.10000000e+00  7.25390480e-05 
 4.11000000e+00  4.11995381e+00  4.11000000e+00  7.23544267e-05 
 4.12000000e+00  4.13004001e+00  4.12000000e+00  7.21888400e-05 
 4.13000000e+00  4.14011118e+00  4.13000000e+00  7.20400921e-05 
 4.14000000e+00  4.15016852e+00  4.14000000e+00  7.19060608e-05 
 4.15000000e+00  4.16021387e+00  4.15000000e+00  7.17847454e-05 
 4.16000000e+00  4.17024951e+00  4.16000000e+00  7.16742971e-05 
 4.17000000e+00  4.18027795e+00  4.17000000e+00  7.15730367e-05 
 4.18000000e+00  4.19030179e+00  4.18000000e+00  7.14794599e-05 
 4.19000000e+00  4.20032350e+00  4.19000000e+00  7.13922352e-05 
 4.20000000e+00  4.21034533e+00  4.20000000e+00  7.13101950e-05 
 4.21000000e+00  4.22036918e+00  4.21000000e+00  7.12323243e-05 
 4.22000000e+00  4.23039657e+00  4.22000000e+00  7.11577456e-05 
 4.23000000e+00  4.24042866e+00  4.23000000e+00  7.10857045e-05 
 4.24000000e+00  4.25046624e+00  4.24000000e+00  7.10155545e-05 
 4.25000000e+00  4.26050981e+00  4.25000000e+00  7.09467423e-05 
 4.26000000e+00  4.27055968e+00  4.26000000e+00  7.08787944e-05 
 4.27000000e+00  4.28061599e+00  4.27000000e+00  7.08113047e-05 
 4.28000000e+00  4.29067883e+00  4.28000000e+00  7.07439229e-05 
 4.29000000e+00  4.30074826e+00  4.29000000e+00  7.06763449e-05 
 4.30000000e+00  4.31082441e+00  4.30000000e+00  7.06083032e-05 
 4.31000000e+00  4.32090748e+00  4.31000000e+00  7.05395593e-05 
 4.32000000e+00  4.33099784e+00  4.32000000e+00  7.04698961e-05 
 4.33000000e+00  4.34109605e+00  4.33000000e+00  7.03991121e-05 
 4.34000000e+00  4.35120290e+00  4.34000000e+00  7.03270143e-05 
 4.35000000e+00  4.36131950e+00  4.35000000e+00  7.02534136e-05 
 4.36000000e+00  4.37144734e+00  4.36000000e+00  7.01781181e-05 
 4.37000000e+00  4.38158837e+00  4.37000000e+00  7.01009280e-05 
 4.38000000e+00  4.39174512e+00  4.38000000e+00  7.00216292e-05 
 4.39000000e+00  4.40192091e+00  4.39000000e+00  6.99399852e-05 
 4.40000000e+00  4.41211990e+00  4.40000000e+00  6.98557304e-05 
 4.41000000e+00  4.42234760e+00  4.41000000e+00  6.97685572e-05 
 4.42000000e+00  4.43261057e+00  4.42000000e+00  6.96781090e-05 
 4.43000000e+00  4.44291811e+00  4.43000000e+00  6.95839505e-05 
 4.44000000e+00  4.45328121e+00  4.44000000e+00  6.94855616e-05 
 4.45000000e+00  4.46371427e+00  4.45000000e+00  6.93822971e-05 
 4.46000000e+00  4.47423596e+00  4.46000000e+00  6.92733458e-05 
 4.47000000e+00  4.48487154e+00  4.47000000e+00  6.91576581e-05 
 4.48000000e+00  4.49564810e+00  4.48000000e+00  6.90339531e-05 
 4.49000000e+00  4.50661065e+00  4.49000000e+00  6.89004084e-05 
 4.50000000e+00  4.51781208e+00  4.50000000e+00  6.87546677e-05 
 4.51000000e+00  4.52932289e+00  4.51000000e+00  6.85935144e-05 
 4.52000000e+00  4.54123650e+00  4.52000000e+00  6.84125194e-05 
 4.53000000e+00  4.55406996e+00  4.53000000e+00  6.81955052e-05 
 4.54000000e+00  4.56754935e+00  4.54000000e+00  6.79421413e-05 
 4.55000000e+00  4.58227959e+00  4.55000000e+00  6.76269768e-05 
 4.56000000e+00  4.59884578e+00  4.56000000e+00  6.72151522e-05 
 4.57000000e+00  4.61912691e+00  4.57000000e+00  6.66015279e-05 
 4.58000000e+00  4.64537085e+00  4.58000000e+00  6.56087676e-05 
 4.59000000e+00  4.69638336e+00  4.59000000e+00  6.27537517e-05 
 4.60000000e+00  4.99339535e+00  4.60000000e+00  1.64606300e-05 
 4.61000000e+00  4.99978310e+00  4.61000000e+00  1.48695696e-05 
 4.62000000e+00  4.99998177e+00  4.62000000e+00  1.48196627e-05 
 4.63000000e+00  4.99999701e+00  4.63000000e+00  1.48158343e-05 
 4.64000000e+00  4.99999914e+00  4.64000000e+00  1.48152970e-05 
 4.65000000e+00  4.99999962e+00  4.65000000e+00  1.48151769e-05 
 4.66000000e+00  4.99999977e+00  4.66000000e+00  1.48151384e-05 
 4.67000000e+00  4.99999983e+00  4.67000000e+00  1.48151234e-05 
 4.68000000e+00  4.99999986e+00  4.68000000e+00  1.48151159e-05 
 4.69000000e+00  4.99999987e+00  4.69000000e+00  1.48151117e-05 
 4.70000000e+00  4.99999988e+00  4.70000000e+00  1.48151091e-05 
 4.71000000e+00  4.99999989e+00  4.71000000e+00  1.48151075e-05 
 4.72000000e+00  4.99999989e+00  4.72000000e+00  1.48151064e-05 
 4.73000000e+00  4.99999989e+00  4.73000000e+00  1.48151057e-05 
 4.74000000e+00  4.99999990e+00  4.74000000e+00  1.48151053e-05 
 4.75000000e+00  4.99999990e+00  4.75000000e+00  1.48151050e-05 
 4.76000000e+00  4.99999990e+00  4.76000000e+00  1.48151049e-05 
 4.77000000e+00  4.99999990e+00  4.77000000e+00  1.48151049e-05 
 4.78000000e+00  4.99999990e+00  4.78000000e+00  1.48151050e-05 
 4.79000000e+00  4.99999990e+00  4.79000000e+00  1.48151051e-05 
 4.80000000e+00  4.99999990e+00  4.80000000e+00  1.48151054e-05 
 4.81000000e+00  4.99999989e+00  4.81000000e+00  1.48151057e-05 
 4.82000000e+00  4.99999989e+00  4.82000000e+00  1.48151060e-05 
 4.83000000e+00  4.99999989e+00  4.83000000e+00  1.48151064e-05 
 4.84000000e+00  4.99999989e+00  4.84000000e+00  1.48151069e-05 
 4.85000000e+00  4.99999989e+00  4.85000000e+00  1.48151074e-05 
 4.86000000e+00  4.99999989e+00  4.86000000e+00  1.48151080e-05 
 4.87000000e+00  4.99999988e+00  4.87000000e+00  1.48151086e-05 
 4.88000000e+00  4.99999988e+00  4.88000000e+00  1.48151092e-05 
 4.89000000e+00  4.99999988e+00  4.89000000e+00  1.48151100e-05 
 4.90000000e+00  4.99999988e+00  4.90000000e+00  1.48151108e-05 
 4.91000000e+00  4.99999987e+00  4.91000000e+00  1.48151116e-05 
 4.92000000e+00  4.99999987e+00  4.92000000e+00  1.48151126e-05 
 4.93000000e+00  4.99999987e+00  4.93000000e+00  1.48151136e-05 
 4.94000000e+00  4.99999986e+00  4.94000000e+00  1.48151147e-05 
 4.95000000e+00  4.99999986e+00  4.95000000e+00  1.48151159e-05 
 4.96000000e+00  4.99999985e+00  4.96000000e+00  1.48151172e-05 
 4.97000000e+00  4.99999985e+00  4.97000000e+00  1.48151186e-05 
 4.98000000e+00  4.99999984e+00  4.98000000e+00  1.48151202e-05 
 4.99000000e+00  4.99999983e+00  4.99000000e+00  1.48151219e-05 
 5.00000000e+00  4.99999983e+00  5.00000000e+00  1.48151237e-05 
