 0.00000000e+00  4.18202702e-02  0.00000000e+00  9.78102367e-05 
 1.00000000e-02  4.19991297e-02  1.00000000e-02  9.78094201e-05 
 2.00000000e-02  4.22020461e-02  2.00000000e-02  9.78084940e-05 
 3.00000000e-02  4.24340616e-02  3.00000000e-02  9.78074354e-05 
 4.00000000e-02  4.27017361e-02  4.00000000e-02  9.78062145e-05 
 5.00000000e-02  4.30137895e-02  5.00000000e-02  9.78047919e-05 
 6.00000000e-02  4.33821207e-02  6.00000000e-02  9.78031135e-05 
 7.00000000e-02  4.38235022e-02  7.00000000e-02  9.78011034e-05 
 8.00000000e-02  4.43625703e-02  8.00000000e-02  9.77986502e-05 
 9.00000000e-02  4.50375131e-02  9.00000000e-02  9.77955814e-05 
 1.00000000e-01  4.59120055e-02  1.00000000e-01  9.77916097e-05 
 1.10000000e-01  4.71038565e-02  1.10000000e-01  9.77862046e-05 
 1.20000000e-01  4.88685979e-02  1.20000000e-01  9.77782184e-05 
 1.30000000e-01  5.19310298e-02  1.30000000e-01  9.77644063e-05 
 1.40000000e-01  5.95587695e-02  1.40000000e-01  9.77302549e-05 
 1.50000000e-01  8.19545842e-02  1.50000000e-01  9.76319146e-05 
 1.60000000e-01  1.09487921e-01  1.60000000e-01  9.75145444e-05 
 1.70000000e-01  1.32948372e-01  1.70000000e-01  9.74171632e-05 
 1.80000000e-01  1.52530057e-01  1.80000000e-01  9.73374323e-05 
 1.90000000e-01  1.69278507e-01  1.90000000e-01  9.72701855e-05 
 2.00000000e-01  1.84010743e-01  2.00000000e-01  9.72116734e-05 
 2.10000000e-01  1.97313871e-01  2.10000000e-01  9.71593303e-05 
 2.20000000e-01  2.09613498e-01  2.20000000e-01  9.71113722e-05 
 2.30000000e-01  2.21219314e-01  2.30000000e-01  9.70665473e-05 
 2.40000000e-01  2.32352962e-01  2.40000000e-01  9.70239852e-05 
 2.50000000e-01  2.43168533e-01  2.50000000e-01  9.69830936e-05 
 2.60000000e-01  2.53770105e-01  2.60000000e-01  9.69434777e-05 
 2.70000000e-01  2.64226575e-01  2.70000000e-01  9.69048771e-05 
 2.80000000e-01  2.74583160e-01  2.80000000e-01  9.68671200e-05 
 2.90000000e-01  2.84869594e-01  2.90000000e-01  9.68300914e-05 
 3.00000000e-01  2.95105618e-01  3.00000000e-01  9.67937126e-05 
 3.10000000e-01  3.05304544e-01  3.10000000e-01  9.67579279e-05 
 3.20000000e-01  3.15475508e-01  3.20000000e-01  9.67226965e-05 
 3.30000000e-01  3.25624910e-01  3.30000000e-01  9.66879871e-05 
 3.40000000e-01  3.35757322e-01  3.40000000e-01  9.66537753e-05 
 3.50000000e-01  3.45876077e-01  3.50000000e-01  9.66200409e-05 
 3.60000000e-01  3.55983653e-01  3.60000000e-01  9.65867666e-05 
 3.70000000e-01  3.66081927e-01  3.70000000e-01  9.65539376e-05 
 3.80000000e-01  3.76172345e-01  3.80000000e-01  9.65215406e-05 
 3.90000000e-01  3.86256041e-01  3.90000000e-01  9.64895633e-05 
 4.00000000e-01  3.96333919e-01  4.00000000e-01  9.64579945e-05 
 4.10000000e-01  4.06406705e-01  4.10000000e-01  9.64268238e-05 
 4.20000000e-01  4.16474996e-01  4.20000000e-01  9.63960410e-05 
 4.30000000e-01  4.26539288e-01  4.30000000e-01  9.63656369e-05 
 4.40000000e-01  4.36599992e-01  4.40000000e-01  9.63356021e-05 
 4.50000000e-01  4.46657459e-01  4.50000000e-01  9.63059280e-05 
 4.60000000e-01  4.56711990e-01  4.60000000e-01  9.62766060e-05 
 4.70000000e-01  4.66763841e-01  4.70000000e-01  9.62476279e-05 
 4.80000000e-01  4.76813238e-01  4.80000000e-01  9.62189857e-05 
 4.90000000e-01  4.86860376e-01  4.90000000e-01  9.61906715e-05 
 5.00000000e-01  4.96905428e-01  5.00000000e-01  9.61626776e-05 
 5.10000000e-01  5.06948548e-01  5.10000000e-01  9.61349968e-05 
 5.20000000e-01  5.16989873e-01  5.20000000e-01  9.61076215e-05 
 5.30000000e-01  5.27029524e-01  5.30000000e-01  9.60805447e-05 
 5.40000000e-01  5.37067613e-01  5.40000000e-01  9.60537594e-05 
 5.50000000e-01  5.47104238e-01  5.50000000e-01  9.60272586e-05 
 5.60000000e-01  5.57139490e-01  5.60000000e-01  9.60010357e-05 
 5.70000000e-01  5.67173451e-01  5.70000000e-01  9.59750840e-05 
 5.80000000e-01  5.77206196e-01  5.80000000e-01  9.59493970e-05 
 5.90000000e-01  5.87237795e-01  5.90000000e-01  9.59239684e-05 
 6.00000000e-01  5.97268310e-01  6.00000000e-01  9.58987918e-05 
 6.10000000e-01  6.07297801e-01  6.10000000e-01  9.58738610e-05 
 6.20000000e-01  6.17326320e-01  6.20000000e-01  9.58491702e-05 
 6.30000000e-01  6.27353917e-01  6.30000000e-01  9.58247132e-05 
 6.40000000e-01  6.37380640e-01  6.40000000e-01  9.58004843e-05 
 6.50000000e-01  6.47406531e-01  6.50000000e-01  9.57764777e-05 
 6.60000000e-01  6.57431630e-01  6.60000000e-01  9.57526877e-05 
 6.70000000e-01  6.67455975e-01  6.70000000e-01  9.57291089e-05 
 6.80000000e-01  6.77479600e-01  6.80000000e-01  9.57057357e-05 
 6.90000000e-01  6.87502538e-01  6.90000000e-01  9.56825628e-05 
 7.00000000e-01  6.97524820e-01  7.00000000e-01  9.56595850e-05 
 7.10000000e-01  7.07546475e-01  7.10000000e-01  9.56367969e-05 
 7.20000000e-01  7.17567529e-01  7.20000000e-01  9.56141936e-05 
 7.30000000e-01  7.27588008e-01  7.30000000e-01  9.55917701e-05 
 7.40000000e-01  7.37607936e-01  7.40000000e-01  9.55695213e-05 
 7.50000000e-01  7.47627336e-01  7.50000000e-01  9.55474426e-05 
 7.60000000e-01  7.57646228e-01  7.60000000e-01  9.55255290e-05 
 7.70000000e-01  7.67664634e-01  7.70000000e-01  9.55037760e-05 
 7.80000000e-01  7.77682572e-01  7.80000000e-01  9.54821789e-05 
 7.90000000e-01  7.87700060e-01  7.90000000e-01  9.54607333e-05 
 8.00000000e-01  7.97717115e-01  8.00000000e-01  9.54394346e-05 
 8.10000000e-01  8.07733754e-01  8.10000000e-01  9.54182786e-05 
 8.20000000e-01  8.17749992e-01  8.20000000e-01  9.53972610e-05 
 8.30000000e-01  8.27765843e-01  8.30000000e-01  9.53763775e-05 
 8.40000000e-01  8.37781322e-01  8.40000000e-01  9.53556240e-05 
 8.50000000e-01  8.47796442e-01  8.50000000e-01  9.53349964e-05 
 8.60000000e-01  8.57811215e-01  8.60000000e-01  9.53144908e-05 
 8.70000000e-01  8.67825653e-01  8.70000000e-01  9.52941033e-05 
 8.80000000e-01  8.77839769e-01  8.80000000e-01  9.52738299e-05 
 8.90000000e-01  8.87853572e-01  8.90000000e-01  9.52536669e-05 
 9.00000000e-01  8.97867073e-01  9.00000000e-01  9.52336106e-05 
 9.10000000e-01  9.07880283e-01  9.10000000e-01  9.52136573e-05 
 9.20000000e-01  9.17893210e-01  9.20000000e-01  9.51938035e-05 
 9.30000000e-01  9.27905864e-01  9.30000000e-01  9.51740456e-05 
 9.40000000e-01  9.37918254e-01  9.40000000e-01  9.51543802e-05 
 9.50000000e-01  9.47930387e-01  9.50000000e-01  9.51348038e-05 
 9.60000000e-01  9.57942273e-01  9.60000000e-01  9.51153132e-05 
 9.70000000e-01  9.67953918e-01  9.70000000e-01  9.50959051e-05 
 9.80000000e-01  9.77965330e-01  9.80000000e-01  9.50765763e-05 
 9.90000000e-01  9.87976516e-01  9.90000000e-01  9.50573236e-05 
 1.00000000e+00  9.97987482e-01  1.00000000e+00  9.50381439e-05 
 1.01000000e+00  1.00799824e+00  1.01000000e+00  9.50190343e-05 
 1.02000000e+00  1.01800878e+00  1.02000000e+00  9.49999916e-05 
 1.03000000e+00  1.02801913e+00  1.03000000e+00  9.49810131e-05 
 1.04000000e+00  1.03802928e+00  1.04000000e+00  9.49620958e-05 
 1.05000000e+00  1.04803924e+00  1.05000000e+00  9.49432369e-05 
 1.06000000e+00  1.05804902e+00  1.06000000e+00  9.49244337e-05 
 1.07000000e+00  1.06805862e+00  1.07000000e+00  9.49056834e-05 
 1.08000000e+00  1.07806805e+00  1.08000000e+00  9.48869834e-05 
 1.09000000e+00  1.08807731e+00  1.09000000e+00  9.48683311e-05 
 1.10000000e+00  1.09808640e+00  1.10000000e+00  9.48497240e-05 
 1.11000000e+00  1.10809533e+00  1.11000000e+00  9.48311595e-05 
 1.12000000e+00  1.11810411e+00  1.12000000e+00  9.48126351e-05 
 1.13000000e+00  1.12811274e+00  1.13000000e+00  9.47941485e-05 
 1.14000000e+00  1.13812121e+00  1.14000000e+00  9.47756973e-05 
 1.15000000e+00  1.14812955e+00  1.15000000e+00  9.47572792e-05 
 1.16000000e+00  1.15813774e+00  1.16000000e+00  9.47388919e-05 
 1.17000000e+00  1.16814580e+00  1.17000000e+00  9.47205332e-05 
 1.18000000e+00  1.17815372e+00  1.18000000e+00  9.47022008e-05 
 1.19000000e+00  1.18816152e+00  1.19000000e+00  9.46838927e-05 
 1.20000000e+00  1.19816918e+00  1.20000000e+00  9.46656067e-05 
 1.21000000e+00  1.20817673e+00  1.21000000e+00  9.46473408e-05 
 1.22000000e+00  1.21818415e+00  1.22000000e+00  9.46290930e-05 
 1.23000000e+00  1.22819146e+00  1.23000000e+00  9.46108612e-05 
 1.24000000e+00  1.23819865e+00  1.24000000e+00  9.45926436e-05 
 1.25000000e+00  1.24820573e+00  1.25000000e+00  9.45744382e-05 
 1.26000000e+00  1.25821270e+00  1.26000000e+00  9.45562431e-05 
 1.27000000e+00  1.26821957e+00  1.27000000e+00  9.45380566e-05 
 1.28000000e+00  1.27822633e+00  1.28000000e+00  9.45198768e-05 
 1.29000000e+00  1.28823299e+00  1.29000000e+00  9.45017020e-05 
 1.30000000e+00  1.29823955e+00  1.30000000e+00  9.44835305e-05 
 1.31000000e+00  1.30824601e+00  1.31000000e+00  9.44653605e-05 
 1.32000000e+00  1.31825238e+00  1.32000000e+00  9.44471904e-05 
 1.33000000e+00  1.32825865e+00  1.33000000e+00  9.44290186e-05 
 1.34000000e+00  1.33826484e+00  1.34000000e+00  9.44108435e-05 
 1.35000000e+00  1.34827093e+00  1.35000000e+00  9.43926634e-05 
 1.36000000e+00  1.35827694e+00  1.36000000e+00  9.43744770e-05 
 1.37000000e+00  1.36828286e+00  1.37000000e+00  9.43562826e-05 
 1.38000000e+00  1.37828870e+00  1.38000000e+00  9.43380789e-05 
 1.39000000e+00  1.38829446e+00  1.39000000e+00  9.43198643e-05 
 1.40000000e+00  1.39830014e+00  1.40000000e+00  9.43016374e-05 
 1.41000000e+00  1.40830575e+00  1.41000000e+00  9.42833969e-05 
 1.42000000e+00  1.41831127e+00  1.42000000e+00  9.42651413e-05 
 1.43000000e+00  1.42831673e+00  1.43000000e+00  9.42468694e-05 
 1.44000000e+00  1.43832211e+00  1.44000000e+00  9.42285798e-05 
 1.45000000e+00  1.44832741e+00  1.45000000e+00  9.42102712e-05 
 1.46000000e+00  1.45833265e+00  1.46000000e+00  9.41919424e-05 
 1.47000000e+00  1.46833782e+00  1.47000000e+00  9.41735921e-05 
 1.48000000e+00  1.47834292e+00  1.48000000e+00  9.41552191e-05 
 1.49000000e+00  1.48834796e+00  1.49000000e+00  9.41368221e-05 
 1.50000000e+00  1.49835293e+00  1.50000000e+00  9.41184001e-05 
 1.51000000e+00  1.50835784e+00  1.51000000e+00  9.40999518e-05 
 1.52000000e+00  1.51836269e+00  1.52000000e+00  9.40814761e-05 
 1.53000000e+00  1.52836748e+00  1.53000000e+00  9.40629719e-05 
 1.54000000e+00  1.53837221e+00  1.54000000e+00  9.40444381e-05 
 1.55000000e+00  1.54837687e+00  1.55000000e+00  9.40258736e-05 
 1.56000000e+00  1.55838149e+00  1.56000000e+00  9.40072773e-05 
 1.57000000e+00  1.56838604e+00  1.57000000e+00  9.39886482e-05 
 1.58000000e+00  1.57839054e+00  1.58000000e+00  9.39699852e-05 
 1.59000000e+00  1.58839499e+00  1.59000000e+00  9.39512874e-05 
 1.60000000e+00  1.59839939e+00  1.60000000e+00  9.39325537e-05 
 1.61000000e+00  1.60840373e+00  1.61000000e+00  9.39137832e-05 
 1.62000000e+00  1.61840802e+00  1.62000000e+00  9.38949748e-05 
 1.63000000e+00  1.62841226e+00  1.63000000e+00  9.38761277e-05 
 1.64000000e+00  1.63841646e+00  1.64000000e+00  9.38572408e-05 
 1.65000000e+00  1.64842060e+00  1.65000000e+00  9.38383132e-05 
 1.66000000e+00  1.65842470e+00  1.66000000e+00  9.38193441e-05 
 1.67000000e+00  1.66842875e+00  1.67000000e+00  9.38003324e-05 
 1.68000000e+00  1.67843276e+00  1.68000000e+00  9.37812774e-05 
 1.69000000e+00  1.68843672e+00  1.69000000e+00  9.37621781e-05 
 1.70000000e+00  1.69844064e+00  1.70000000e+00  9.37430336e-05 
 1.71000000e+00  1.70844451e+00  1.71000000e+00  9.37238431e-05 
 1.72000000e+00  1.71844834e+00  1.72000000e+00  9.37046057e-05 
 1.73000000e+00  1.72845214e+00  1.73000000e+00  9.36853206e-05 
 1.74000000e+00  1.73845589e+00  1.74000000e+00  9.36659869e-05 
 1.75000000e+00  1.74845960e+00  1.75000000e+00  9.36466037e-05 
 1.76000000e+00  1.75846327e+00  1.76000000e+00  9.36271704e-05 
 1.77000000e+00  1.76846690e+00  1.77000000e+00  9.36076859e-05 
 1.78000000e+00  1.77847049e+00  1.78000000e+00  9.35881496e-05 
 1.79000000e+00  1.78847405e+00  1.79000000e+00  9.35685606e-05 
 1.80000000e+00  1.79847757e+00  1.80000000e+00  9.35489181e-05 
 1.81000000e+00  1.80848106e+00  1.81000000e+00  9.35292213e-05 
 1.82000000e+00  1.81848451e+00  1.82000000e+00  9.35094694e-05 
 1.83000000e+00  1.82848792e+00  1.83000000e+00  9.34896616e-05 
 1.84000000e+00  1.83849130e+00  1.84000000e+00  9.34697972e-05 
 1.85000000e+00  1.84849465e+00  1.85000000e+00  9.34498753e-05 
 1.86000000e+00  1.85849796e+00  1.86000000e+00  9.34298951e-05 
 1.87000000e+00  1.86850124e+00  1.87000000e+00  9.34098560e-05 
 1.88000000e+00  1.87850449e+00  1.88000000e+00  9.33897571e-05 
 1.89000000e+00  1.88850771e+00  1.89000000e+00  9.33695975e-05 
 1.90000000e+00  1.89851089e+00  1.90000000e+00  9.33493767e-05 
 1.91000000e+00  1.90851405e+00  1.91000000e+00  9.33290937e-05 
 1.92000000e+00  1.91851718e+00  1.92000000e+00  9.33087478e-05 
 1.93000000e+00  1.92852028e+00  1.93000000e+00  9.32883382e-05 
 1.94000000e+00  1.93852334e+00  1.94000000e+00  9.32678641e-05 
 1.95000000e+00  1.94852638e+00  1.95000000e+00  9.32473249e-05 
 1.96000000e+00  1.95852940e+00  1.96000000e+00  9.32267196e-05 
 1.97000000e+00  1.96853238e+00  1.97000000e+00  9.32060475e-05 
 1.98000000e+00  1.97853534e+00  1.98000000e+00  9.31853078e-05 
 1.99000000e+00  1.98853827e+00  1.99000000e+00  9.31644997e-05 
 2.00000000e+00  1.99854118e+00  2.00000000e+00  9.31436225e-05 
 2.01000000e+00  2.00854406e+00  2.01000000e+00  9.31226753e-05 
 2.02000000e+00  2.01854691e+00  2.02000000e+00  9.31016573e-05 
 2.03000000e+00  2.02854974e+00  2.03000000e+00  9.30805678e-05 
 2.04000000e+00  2.03855254e+00  2.04000000e+00  9.30594059e-05 
 2.05000000e+00  2.04855533e+00  2.05000000e+00  9.30381709e-05 
 2.06000000e+00  2.05855808e+00  2.06000000e+00  9.30168618e-05 
 2.07000000e+00  2.06856082e+00  2.07000000e+00  9.29954778e-05 
 2.08000000e+00  2.07856353e+00  2.08000000e+00  9.29740182e-05 
 2.09000000e+00  2.08856622e+00  2.09000000e+00  9.29524821e-05 
 2.10000000e+00  2.09856888e+00  2.10000000e+00  9.29308687e-05 
 2.11000000e+00  2.10857153e+00  2.11000000e+00  9.29091770e-05 
 2.12000000e+00  2.11857415e+00  2.12000000e+00  9.28874062e-05 
 2.13000000e+00  2.12857675e+00  2.13000000e+00  9.28655555e-05 
 2.14000000e+00  2.13857933e+00  2.14000000e+00  9.28436240e-05 
 2.15000000e+00  2.14858189e+00  2.15000000e+00  9.28216108e-05 
 2.16000000e+00  2.15858443e+00  2.16000000e+00  9.27995149e-05 
 2.17000000e+00  2.16858695e+00  2.17000000e+00  9.27773355e-05 
 2.18000000e+00  2.17858945e+00  2.18000000e+00  9.27550716e-05 
 2.19000000e+00  2.18859193e+00  2.19000000e+00  9.27327223e-05 
 2.20000000e+00  2.19859440e+00  2.20000000e+00  9.27102867e-05 
 2.21000000e+00  2.20859684e+00  2.21000000e+00  9.26877639e-05 
 2.22000000e+00  2.21859927e+00  2.22000000e+00  9.26651527e-05 
 2.23000000e+00  2.22860168e+00  2.23000000e+00  9.26424523e-05 
 2.24000000e+00  2.23860407e+00  2.24000000e+00  9.26196617e-05 
 2.25000000e+00  2.24860644e+00  2.25000000e+00  9.25967798e-05 
 2.26000000e+00  2.25860879e+00  2.26000000e+00  9.25738056e-05 
 2.27000000e+00  2.26861113e+00  2.27000000e+00  9.25507382e-05 
 2.28000000e+00  2.27861345e+00  2.28000000e+00  9.25275763e-05 
 2.29000000e+00  2.28861576e+00  2.29000000e+00  9.25043190e-05 
 2.30000000e+00  2.29861805e+00  2.30000000e+00  9.24809652e-05 
 2.31000000e+00  2.30862032e+00  2.31000000e+00  9.24575137e-05 
 2.32000000e+00  2.31862258e+00  2.32000000e+00  9.24339635e-05 
 2.33000000e+00  2.32862483e+00  2.33000000e+00  9.24103134e-05 
 2.34000000e+00  2.33862705e+00  2.34000000e+00  9.23865622e-05 
 2.35000000e+00  2.34862927e+00  2.35000000e+00  9.23627088e-05 
 2.36000000e+00  2.35863146e+00  2.36000000e+00  9.23387520e-05 
 2.37000000e+00  2.36863365e+00  2.37000000e+00  9.23146905e-05 
 2.38000000e+00  2.37863582e+00  2.38000000e+00  9.22905231e-05 
 2.39000000e+00  2.38863797e+00  2.39000000e+00  9.22662485e-05 
 2.40000000e+00  2.39864012e+00  2.40000000e+00  9.22418655e-05 
 2.41000000e+00  2.40864225e+00  2.41000000e+00  9.22173728e-05 
 2.42000000e+00  2.41864436e+00  2.42000000e+00  9.21927689e-05 
 2.43000000e+00  2.42864646e+00  2.43000000e+00  9.21680527e-05 
 2.44000000e+00  2.43864855e+00  2.44000000e+00  9.21432226e-05 
 2.45000000e+00  2.44865063e+00  2.45000000e+00  9.21182773e-05 
 2.46000000e+00  2.45865270e+00  2.46000000e+00  9.20932154e-05 
 2.47000000e+00  2.46865475e+00  2.47000000e+00  9.20680353e-05 
 2.48000000e+00  2.47865679e+00  2.48000000e+00  9.20427356e-05 
 2.49000000e+00  2.48865882e+00  2.49000000e+00  9.20173148e-05 
 2.50000000e+00  2.49866084e+00  2.50000000e+00  9.19917713e-05 
 2.51000000e+00  2.50866285e+00  2.51000000e+00  9.19661035e-05 
 2.52000000e+00  2.51866484e+00  2.52000000e+00  9.19403099e-05 
 2.53000000e+00  2.52866683e+00  2.53000000e+00  9.19143888e-05 
 2.54000000e+00  2.53866880e+00  2.54000000e+00  9.18883385e-05 
 2.55000000e+00  2.54867076e+00  2.55000000e+00  9.18621572e-05 
 2.56000000e+00  2.55867272e+00  2.56000000e+00  9.18358433e-05 
 2.57000000e+00  2.56867466e+00  2.57000000e+00  9.18093950e-05 
 2.58000000e+00  2.57867659e+00  2.58000000e+00  9.17828104e-05 
 2.59000000e+00  2.58867852e+00  2.59000000e+00  9.17560876e-05 
 2.60000000e+00  2.59868043e+00  2.60000000e+00  9.17292248e-05 
 2.61000000e+00  2.60868233e+00  2.61000000e+00  9.17022199e-05 
 2.62000000e+00  2.61868423e+00  2.62000000e+00  9.16750711e-05 
 2.63000000e+00  2.62868612e+00  2.63000000e+00  9.16477762e-05 
 2.64000000e+00  2.63868799e+00  2.64000000e+00  9.16203332e-05 
 2.65000000e+00  2.64868986e+00  2.65000000e+00  9.15927400e-05 
 2.66000000e+00  2.65869172e+00  2.66000000e+00  9.15649943e-05 
 2.67000000e+00  2.66869357e+00  2.67000000e+00  9.15370939e-05 
 2.68000000e+00  2.67869542e+00  2.68000000e+00  9.15090365e-05 
 2.69000000e+00  2.68869725e+00  2.69000000e+00  9.14808198e-05 
 2.70000000e+00  2.69869908e+00  2.70000000e+00  9.14524414e-05 
 2.71000000e+00  2.70870090e+00  2.71000000e+00  9.14238988e-05 
 2.72000000e+00  2.71870272e+00  2.72000000e+00  9.13951894e-05 
 2.73000000e+00  2.72870452e+00  2.73000000e+00  9.13663108e-05 
 2.74000000e+00  2.73870632e+00  2.74000000e+00  9.13372602e-05 
 2.75000000e+00  2.74870811e+00  2.75000000e+00  9.13080349e-05 
 2.76000000e+00  2.75870990e+00  2.76000000e+00  9.12786321e-05 
 2.77000000e+00  2.76871168e+00  2.77000000e+00  9.12490490e-05 
 2.78000000e+00  2.77871345e+00  2.78000000e+00  9.12192826e-05 
 2.79000000e+00  2.78871522e+00  2.79000000e+00  9.11893299e-05 
 2.80000000e+00  2.79871698e+00  2.80000000e+00  9.11591877e-05 
 2.81000000e+00  2.80871873e+00  2.81000000e+00  9.11288529e-05 
 2.82000000e+00  2.81872048e+00  2.82000000e+00  9.10983221e-05 
 2.83000000e+00  2.82872222e+00  2.83000000e+00  9.10675921e-05 
 2.84000000e+00  2.83872396e+00  2.84000000e+00  9.10366593e-05 
 2.85000000e+00  2.84872569e+00  2.85000000e+00  9.10055201e-05 
 2.86000000e+00  2.85872742e+00  2.86000000e+00  9.09741709e-05 
 2.87000000e+00  2.86872914e+00  2.87000000e+00  9.09426078e-05 
 2.88000000e+00  2.87873086e+00  2.88000000e+00  9.09108270e-05 
 2.89000000e+00  2.88873258e+00  2.89000000e+00  9.08788244e-05 
 2.90000000e+00  2.89873429e+00  2.90000000e+00  9.08465958e-05 
 2.91000000e+00  2.90873599e+00  2.91000000e+00  9.08141370e-05 
 2.92000000e+00  2.91873769e+00  2.92000000e+00  9.07814435e-05 
 2.93000000e+00  2.92873939e+00  2.93000000e+00  9.07485107e-05 
 2.94000000e+00  2.93874109e+00  2.94000000e+00  9.07153340e-05 
 2.95000000e+00  2.94874278e+00  2.95000000e+00  9.06819084e-05 
 2.96000000e+00  2.95874447e+00  2.96000000e+00  9.06482288e-05 
 2.97000000e+00  2.96874615e+00  2.97000000e+00  9.06142901e-05 
 2.98000000e+00  2.97874784e+00  2.98000000e+00  9.05800867e-05 
 2.99000000e+00  2.98874952e+00  2.99000000e+00  9.05456132e-05 
 3.00000000e+00  2.99875120e+00  3.00000000e+00  9.05108636e-05 
 3.01000000e+00  3.00875287e+00  3.01000000e+00  9.04758319e-05 
 3.02000000e+00  3.01875455e+00  3.02000000e+00  9.04405119e-05 
 3.03000000e+00  3.02875622e+00  3.03000000e+00  9.04048970e-05 
 3.04000000e+00  3.03875790e+00  3.04000000e+00  9.03689804e-05 
 3.05000000e+00  3.04875957e+00  3.05000000e+00  9.03327551e-05 
 3.06000000e+00  3.05876124e+00  3.06000000e+00  9.02962138e-05 
 3.07000000e+00  3.06876291e+00  3.07000000e+00  9.02593487e-05 
 3.08000000e+00  3.07876458e+00  3.08000000e+00  9.02221520e-05 
 3.09000000e+00  3.08876625e+00  3.09000000e+00  9.01846152e-05 
 3.10000000e+00  3.09876792e+00  3.10000000e+00  9.01467297e-05 
 3.11000000e+00  3.10876960e+00  3.11000000e+00  9.01084863e-05 
 3.12000000e+00  3.11877127e+00  3.12000000e+00  9.00698755e-05 
 3.13000000e+00  3.12877295e+00  3.13000000e+00  9.00308872e-05 
 3.14000000e+00  3.13877463e+00  3.14000000e+00  8.99915111e-05 
 3.15000000e+00  3.14877631e+00  3.15000000e+00  8.99517360e-05 
 3.16000000e+00  3.15877799e+00  3.16000000e+00  8.99115502e-05 
 3.17000000e+00  3.16877968e+00  3.17000000e+00  8.98709416e-05 
 3.18000000e+00  3.17878137e+00  3.18000000e+00  8.98298972e-05 
 3.19000000e+00  3.18878306e+00  3.19000000e+00  8.97884032e-05 
 3.20000000e+00  3.19878476e+00  3.20000000e+00  8.97464453e-05 
 3.21000000e+00  3.20878647e+00  3.21000000e+00  8.97040080e-05 
 3.22000000e+00  3.21878818e+00  3.22000000e+00  8.96610749e-05 
 3.23000000e+00  3.22878990e+00  3.23000000e+00  8.96176287e-05 
 3.24000000e+00  3.23879163e+00  3.24000000e+00  8.95736506e-05 
 3.25000000e+00  3.24879336e+00  3.25000000e+00  8.95291208e-05 
 3.26000000e+00  3.25879511e+00  3.26000000e+00  8.94840178e-05 
 3.27000000e+00  3.26879686e+00  3.27000000e+00  8.94383186e-05 
 3.28000000e+00  3.27879863e+00  3.28000000e+00  8.93919983e-05 
 3.29000000e+00  3.28880040e+00  3.29000000e+00  8.93450300e-05 
 3.30000000e+00  3.29880220e+00  3.30000000e+00  8.92973843e-05 
 3.31000000e+00  3.30880400e+00  3.31000000e+00  8.92490295e-05 
 3.32000000e+00  3.31880583e+00  3.32000000e+00  8.91999305e-05 
 3.33000000e+00  3.32880767e+00  3.33000000e+00  8.91500488e-05 
 3.34000000e+00  3.33880953e+00  3.34000000e+00  8.90993422e-05 
 3.35000000e+00  3.34881141e+00  3.35000000e+00  8.90477634e-05 
 3.36000000e+00  3.35881332e+00  3.36000000e+00  8.89952602e-05 
 3.37000000e+00  3.36881526e+00  3.37000000e+00  8.89417736e-05 
 3.38000000e+00  3.37881722e+00  3.38000000e+00  8.88872375e-05 
 3.39000000e+00  3.38881922e+00  3.39000000e+00  8.88315770e-05 
 3.40000000e+00  3.39882125e+00  3.40000000e+00  8.87747068e-05 
 3.41000000e+00  3.40882333e+00  3.41000000e+00  8.87165289e-05 
 3.42000000e+00  3.41882546e+00  3.42000000e+00  8.86569307e-05 
 3.43000000e+00  3.42882763e+00  3.43000000e+00  8.85957815e-05 
 3.44000000e+00  3.43882987e+00  3.44000000e+00  8.85329290e-05 
 3.45000000e+00  3.44883218e+00  3.45000000e+00  8.84681947e-05 
 3.46000000e+00  3.45883457e+00  3.46000000e+00  8.84013680e-05 
 3.47000000e+00  3.46883705e+00  3.47000000e+00  8.83322002e-05 
 3.48000000e+00  3.47883963e+00  3.48000000e+00  8.82603958e-05 
 3.49000000e+00  3.48884234e+00  3.49000000e+00  8.81856032e-05 
 3.50000000e+00  3.49884518e+00  3.50000000e+00  8.81074037e-05 
 3.51000000e+00  3.50884820e+00  3.51000000e+00  8.80252994e-05 
 3.52000000e+00  3.51885141e+00  3.52000000e+00  8.79387004e-05 
 3.53000000e+00  3.52885485e+00  3.53000000e+00  8.78469118e-05 
 3.54000000e+00  3.53885856e+00  3.54000000e+00  8.77491236e-05 
 3.55000000e+00  3.54886259e+00  3.55000000e+00  8.76444033e-05 
 3.56000000e+00  3.55886698e+00  3.56000000e+00  8.75316965e-05 
 3.57000000e+00  3.56887181e+00  3.57000000e+00  8.74098362e-05 
 3.58000000e+00  3.57887712e+00  3.58000000e+00  8.72775640e-05 
 3.59000000e+00  3.58888298e+00  3.59000000e+00  8.71335625e-05 
 3.60000000e+00  3.59888947e+00  3.60000000e+00  8.69764984e-05 
 3.61000000e+00  3.60889664e+00  3.61000000e+00  8.68050709e-05 
 3.62000000e+00  3.61890457e+00  3.62000000e+00  8.66180594e-05 
 3.63000000e+00  3.62891331e+00  3.63000000e+00  8.64143662e-05 
 3.64000000e+00  3.63892291e+00  3.64000000e+00  8.61930470e-05 
 3.65000000e+00  3.64893342e+00  3.65000000e+00  8.59533296e-05 
 3.66000000e+00  3.65894487e+00  3.66000000e+00  8.56946200e-05 
 3.67000000e+00  3.66895729e+00  3.67000000e+00  8.54164974e-05 
 3.68000000e+00  3.67897071e+00  3.68000000e+00  8.51187038e-05 
 3.69000000e+00  3.68898514e+00  3.69000000e+00  8.48011277e-05 
 3.70000000e+00  3.69900060e+00  3.70000000e+00  8.44637884e-05 
 3.71000000e+00  3.70901709e+00  3.71000000e+00  8.41068189e-05 
 3.72000000e+00  3.71903462e+00  3.72000000e+00  8.37304521e-05 
 3.73000000e+00  3.72905319e+00  3.73000000e+00  8.33350076e-05 
 3.74000000e+00  3.73907280e+00  3.74000000e+00  8.29208825e-05 
 3.75000000e+00  3.74909346e+00  3.75000000e+00  8.24885426e-05 
 3.76000000e+00  3.75911516e+00  3.76000000e+00  8.20385176e-05 
 3.77000000e+00  3.76913791e+00  3.77000000e+00  8.15713963e-05 
 3.78000000e+00  3.77916170e+00  3.78000000e+00  8.10878246e-05 
 3.79000000e+00  3.78918652e+00  3.79000000e+00  8.05885047e-05 
 3.80000000e+00  3.79921240e+00  3.80000000e+00  8.00741947e-05 
 3.81000000e+00  3.80923931e+00  3.81000000e+00  7.95457102e-05 
 3.82000000e+00  3.81926727e+00  3.82000000e+00  7.90039261e-05 
 3.83000000e+00  3.82929628e+00  3.83000000e+00  7.84497795e-05 
 3.84000000e+00  3.83932635e+00  3.84000000e+00  7.78842729e-05 
 3.85000000e+00  3.84935747e+00  3.85000000e+00  7.73084785e-05 
 3.86000000e+00  3.85938967e+00  3.86000000e+00  7.67235427e-05 
 3.87000000e+00  3.86942295e+00  3.87000000e+00  7.61306903e-05 
 3.88000000e+00  3.87945732e+00  3.88000000e+00  7.55312307e-05 
 3.89000000e+00  3.88949280e+00  3.89000000e+00  7.49265621e-05 
 3.90000000e+00  3.89952941e+00  3.90000000e+00  7.43181768e-05 
 3.91000000e+00  3.90956716e+00  3.91000000e+00  7.37076662e-05 
 3.92000000e+00  3.91960609e+00  3.92000000e+00  7.30967239e-05 
 3.93000000e+00  3.92964621e+00  3.93000000e+00  7.24871484e-05 
 3.94000000e+00  3.93968756e+00  3.94000000e+00  7.18808433e-05 
 3.95000000e+00  3.94973016e+00  3.95000000e+00  7.12798155e-05 
 3.96000000e+00  3.95977405e+00  3.96000000e+00  7.06861680e-05 
 3.97000000e+00  3.96981927e+00  3.97000000e+00  7.01020899e-05 
 3.98000000e+00  3.97986584e+00  3.98000000e+00  6.95298385e-05 
 3.99000000e+00  3.98991379e+00  3.99000000e+00  6.89717150e-05 
 4.00000000e+00  3.99996317e+00  4.00000000e+00  6.84300310e-05 
 4.01000000e+00  4.01001397e+00  4.01000000e+00  6.79070664e-05 
 4.02000000e+00  4.02006623e+00  4.02000000e+00  6.74050169e-05 
 4.03000000e+00  4.03011994e+00  4.03000000e+00  6.69259333e-05 
 4.04000000e+00  4.04017508e+00  4.04000000e+00  6.64716543e-05 
 4.05000000e+00  4.05023162e+00  4.05000000e+00  6.60437367e-05 
 4.06000000e+00  4.06028950e+00  4.06000000e+00  6.56433881e-05 
 4.07000000e+00  4.07034866e+00  4.07000000e+00  6.52714089e-05 
 4.08000000e+00  4.08040899e+00  4.08000000e+00  6.49281501e-05 
 4.09000000e+00  4.09047040e+00  4.09000000e+00  6.46134931e-05 
 4.10000000e+00  4.10053277e+00  4.10000000e+00  6.43268553e-05 
 4.11000000e+00  4.11059599e+00  4.11000000e+00  6.40672210e-05 
 4.12000000e+00  4.12065998e+00  4.12000000e+00  6.38331978e-05 
 4.13000000e+00  4.13072465e+00  4.13000000e+00  6.36230887e-05 
 4.14000000e+00  4.14078999e+00  4.14000000e+00  6.34349768e-05 
 4.15000000e+00  4.15085597e+00  4.15000000e+00  6.32668104e-05 
 4.16000000e+00  4.16092264e+00  4.16000000e+00  6.31164846e-05 
 4.17000000e+00  4.17099006e+00  4.17000000e+00  6.29819119e-05 
 4.18000000e+00  4.18105832e+00  4.18000000e+00  6.28610800e-05 
 4.19000000e+00  4.19112754e+00  4.19000000e+00  6.27520942e-05 
 4.20000000e+00  4.20119781e+00  4.20000000e+00  6.26532064e-05 
 4.21000000e+00  4.21126928e+00  4.21000000e+00  6.25628309e-05 
 4.22000000e+00  4.22134204e+00  4.22000000e+00  6.24795505e-05 
 4.23000000e+00  4.23141619e+00  4.23000000e+00  6.24021138e-05 
 4.24000000e+00  4.24149184e+00  4.24000000e+00  6.23294278e-05 
 4.25000000e+00  4.25156906e+00  4.25000000e+00  6.22605455e-05 
 4.26000000e+00  4.26164794e+00  4.26000000e+00  6.21946521e-05 
 4.27000000e+00  4.27172855e+00  4.27000000e+00  6.21310506e-05 
 4.28000000e+00  4.28181098e+00  4.28000000e+00  6.20691459e-05 
 4.29000000e+00  4.29189536e+00  4.29000000e+00  6.20084315e-05 
 4.30000000e+00  4.30198181e+00  4.30000000e+00  6.19484756e-05 
 4.31000000e+00  4.31207053e+00  4.31000000e+00  6.18889089e-05 
 4.32000000e+00  4.32216175e+00  4.32000000e+00  6.18294139e-05 
 4.33000000e+00  4.33225578e+00  4.33000000e+00  6.17697150e-05 
 4.34000000e+00  4.34235300e+00  4.34000000e+00  6.17095701e-05 
 4.35000000e+00  4.35245391e+00  4.35000000e+00  6.16487625e-05 
 4.36000000e+00  4.36255914e+00  4.36000000e+00  6.15870945e-05 
 4.37000000e+00  4.37266948e+00  4.37000000e+00  6.15243814e-05 
 4.38000000e+00  4.38278595e+00  4.38000000e+00  6.14604451e-05 
 4.39000000e+00  4.39290982e+00  4.39000000e+00  6.13951093e-05 
 4.40000000e+00  4.40304269e+00  4.40000000e+00  6.13281935e-05 
 4.41000000e+00  4.41318660e+00  4.41000000e+00  6.12595080e-05 
 4.42000000e+00  4.42334413e+00  4.42000000e+00  6.11888471e-05 
 4.43000000e+00  4.43351856e+00  4.43000000e+00  6.11159819e-05 
 4.44000000e+00  4.44371403e+00  4.44000000e+00  6.10406525e-05 
 4.45000000e+00  4.45393582e+00  4.45000000e+00  6.09625570e-05 
 4.46000000e+00  4.46419081e+00  4.46000000e+00  6.08813366e-05 
 4.47000000e+00  4.47448716e+00  4.47000000e+00  6.07965652e-05 
 4.48000000e+00  4.48483631e+00  4.48000000e+00  6.07077129e-05 
 4.49000000e+00  4.49525269e+00  4.49000000e+00  6.06141224e-05 
 4.50000000e+00  4.50575376e+00  4.50000000e+00  6.05149774e-05 
 4.51000000e+00  4.51636459e+00  4.51000000e+00  6.04092031e-05 
 4.52000000e+00  4.52711215e+00  4.52000000e+00  6.02954735e-05 
 4.53000000e+00  4.53803901e+00  4.53000000e+00  6.01719430e-05 
 4.54000000e+00  4.54919798e+00  4.54000000e+00  6.00361714e-05 
 4.55000000e+00  4.56066633e+00  4.55000000e+00  5.98846881e-05 
 4.56000000e+00  4.57250122e+00  4.56000000e+00  5.97136564e-05 
 4.57000000e+00  4.58537135e+00  4.57000000e+00  5.95029524e-05 
 4.58000000e+00  4.59882210e+00  4.58000000e+00  5.92557060e-05 
 4.59000000e+00  4.61352553e+00  4.59000000e+00  5.89440478e-05 
 4.60000000e+00  4.62991511e+00  4.60000000e+00  5.85376104e-05 
 4.61000000e+00  4.64977870e+00  4.61000000e+00  5.79371439e-05 
 4.62000000e+00  4.67849348e+00  4.62000000e+00  5.67891403e-05 
 4.63000000e+00  4.73898487e+00  4.63000000e+00  5.31033533e-05 
 4.64000000e+00  4.99910496e+00  4.64000000e+00  1.32542665e-05 
 4.65000000e+00  4.99991751e+00  4.65000000e+00  1.30653323e-05 
 4.66000000e+00  4.99998512e+00  4.66000000e+00  1.30496039e-05 
 4.67000000e+00  4.99999555e+00  4.67000000e+00  1.30471758e-05 
 4.68000000e+00  4.99999807e+00  4.68000000e+00  1.30465883e-05 
 4.69000000e+00  4.99999891e+00  4.69000000e+00  1.30463923e-05 
 4.70000000e+00  4.99999927e+00  4.70000000e+00  1.30463103e-05 
 4.71000000e+00  4.99999944e+00  4.71000000e+00  1.30462702e-05 
 4.72000000e+00  4.99999953e+00  4.72000000e+00  1.30462474e-05 
 4.73000000e+00  4.99999959e+00  4.73000000e+00  1.30462351e-05 
 4.74000000e+00  4.99999962e+00  4.74000000e+00  1.30462277e-05 
 4.75000000e+00  4.99999964e+00  4.75000000e+00  1.30462233e-05 
 4.76000000e+00  4.99999965e+00  4.76000000e+00  1.30462208e-05 
 4.77000000e+00  4.99999965e+00  4.77000000e+00  1.30462197e-05 
 4.78000000e+00  4.99999965e+00  4.78000000e+00  1.30462197e-05 
 4.79000000e+00  4.99999965e+00  4.79000000e+00  1.30462206e-05 
 4.80000000e+00  4.99999964e+00  4.80000000e+00  1.30462221e-05 
 4.81000000e+00  4.99999963e+00  4.81000000e+00  1.30462243e-05 
 4.82000000e+00  4.99999962e+00  4.82000000e+00  1.30462271e-05 
 4.83000000e+00  4.99999961e+00  4.83000000e+00  1.30462304e-05 
 4.84000000e+00  4.99999959e+00  4.84000000e+00  1.30462343e-05 
 4.85000000e+00  4.99999957e+00  4.85000000e+00  1.30462387e-05 
 4.86000000e+00  4.99999955e+00  4.86000000e+00  1.30462438e-05 
 4.87000000e+00  4.99999953e+00  4.87000000e+00  1.30462494e-05 
 4.88000000e+00  4.99999950e+00  4.88000000e+00  1.30462557e-05 
 4.89000000e+00  4.99999947e+00  4.89000000e+00  1.30462626e-05 
 4.90000000e+00  4.99999944e+00  4.90000000e+00  1.30462703e-05 
 4.91000000e+00  4.99999940e+00  4.91000000e+00  1.30462788e-05 
 4.92000000e+00  4.99999936e+00  4.92000000e+00  1.30462882e-05 
 4.93000000e+00  4.99999932e+00  4.93000000e+00  1.30462985e-05 
 4.94000000e+00  4.99999927e+00  4.94000000e+00  1.30463098e-05 
 4.95000000e+00  4.99999921e+00  4.95000000e+00  1.30463223e-05 
 4.96000000e+00  4.99999914e+00  4.96000000e+00  1.30463399e-05 
 4.97000000e+00  4.99999907e+00  4.97000000e+00  1.30463557e-05 
 4.98000000e+00  4.99999900e+00  4.98000000e+00  1.30463731e-05 
 4.99000000e+00  4.99999891e+00  4.99000000e+00  1.30463923e-05 
 5.00000000e+00  4.99999882e+00  5.00000000e+00  1.30464135e-05 
