 0.00000000e+00  7.08558493e-02  0.00000000e+00  7.48215139e-05 
 1.00000000e-02  7.12396263e-02  1.00000000e-02  7.48155179e-05 
 2.00000000e-02  7.16620680e-02  2.00000000e-02  7.48089214e-05 
 3.00000000e-02  7.21293272e-02  3.00000000e-02  7.48016294e-05 
 4.00000000e-02  7.26489173e-02  4.00000000e-02  7.47935260e-05 
 5.00000000e-02  7.32301101e-02  5.00000000e-02  7.47844684e-05 
 6.00000000e-02  7.38844840e-02  6.00000000e-02  7.47742787e-05 
 7.00000000e-02  7.46266933e-02  7.00000000e-02  7.47627320e-05 
 8.00000000e-02  7.54755731e-02  8.00000000e-02  7.47495396e-05 
 9.00000000e-02  7.64557648e-02  9.00000000e-02  7.47343250e-05 
 1.00000000e-01  7.76001780e-02  1.00000000e-01  7.47165863e-05 
 1.10000000e-01  7.89538420e-02  1.10000000e-01  7.46956386e-05 
 1.20000000e-01  8.05801619e-02  1.20000000e-01  7.46705212e-05 
 1.30000000e-01  8.25715262e-02  1.30000000e-01  7.46398391e-05 
 1.40000000e-01  8.50681951e-02  1.40000000e-01  7.46014850e-05 
 1.50000000e-01  8.82937667e-02  1.50000000e-01  7.45521194e-05 
 1.60000000e-01  9.26251937e-02  1.60000000e-01  7.44861570e-05 
 1.70000000e-01  9.87334938e-02  1.70000000e-01  7.43937677e-05 
 1.80000000e-01  1.07828070e-01  1.80000000e-01  7.42575649e-05 
 1.90000000e-01  1.21697123e-01  1.90000000e-01  7.40529185e-05 
 2.00000000e-01  1.40942933e-01  2.00000000e-01  7.37748843e-05 
 2.10000000e-01  1.62556455e-01  2.10000000e-01  7.34705718e-05 
 2.20000000e-01  1.83206370e-01  2.20000000e-01  7.31873067e-05 
 2.30000000e-01  2.01812300e-01  2.30000000e-01  7.29380563e-05 
 2.40000000e-01  2.18442520e-01  2.40000000e-01  7.27198800e-05 
 2.50000000e-01  2.33435557e-01  2.50000000e-01  7.25268034e-05 
 2.60000000e-01  2.47138068e-01  2.60000000e-01  7.23533051e-05 
 2.70000000e-01  2.59849476e-01  2.70000000e-01  7.21948853e-05 
 2.80000000e-01  2.71816539e-01  2.80000000e-01  7.20480005e-05 
 2.90000000e-01  2.83237051e-01  2.90000000e-01  7.19099157e-05 
 3.00000000e-01  2.94264618e-01  3.00000000e-01  7.17785716e-05 
 3.10000000e-01  3.05014255e-01  3.10000000e-01  7.16524627e-05 
 3.20000000e-01  3.15569113e-01  3.20000000e-01  7.15305186e-05 
 3.30000000e-01  3.25987649e-01  3.30000000e-01  7.14119941e-05 
 3.40000000e-01  3.36310228e-01  3.40000000e-01  7.12963758e-05 
 3.50000000e-01  3.46564496e-01  3.50000000e-01  7.11833091e-05 
 3.60000000e-01  3.56769398e-01  3.60000000e-01  7.10725471e-05 
 3.70000000e-01  3.66937999e-01  3.70000000e-01  7.09639141e-05 
 3.80000000e-01  3.77079410e-01  3.80000000e-01  7.08572819e-05 
 3.90000000e-01  3.87200072e-01  3.90000000e-01  7.07525543e-05 
 4.00000000e-01  3.97304607e-01  4.00000000e-01  7.06496564e-05 
 4.10000000e-01  4.07396382e-01  4.10000000e-01  7.05485283e-05 
 4.20000000e-01  4.17477895e-01  4.20000000e-01  7.04491202e-05 
 4.30000000e-01  4.27551025e-01  4.30000000e-01  7.03513898e-05 
 4.40000000e-01  4.37617207e-01  4.40000000e-01  7.02552998e-05 
 4.50000000e-01  4.47677555e-01  4.50000000e-01  7.01608168e-05 
 4.60000000e-01  4.57732945e-01  4.60000000e-01  7.00679104e-05 
 4.70000000e-01  4.67784075e-01  4.70000000e-01  6.99765522e-05 
 4.80000000e-01  4.77831508e-01  4.80000000e-01  6.98867156e-05 
 4.90000000e-01  4.87875705e-01  4.90000000e-01  6.97983753e-05 
 5.00000000e-01  4.97917046e-01  5.00000000e-01  6.97115071e-05 
 5.10000000e-01  5.07955847e-01  5.10000000e-01  6.96260875e-05 
 5.20000000e-01  5.17992375e-01  5.20000000e-01  6.95420939e-05 
 5.30000000e-01  5.28026858e-01  5.30000000e-01  6.94595043e-05 
 5.40000000e-01  5.38059490e-01  5.40000000e-01  6.93782972e-05 
 5.50000000e-01  5.48090438e-01  5.50000000e-01  6.92984515e-05 
 5.60000000e-01  5.58119848e-01  5.60000000e-01  6.92199465e-05 
 5.70000000e-01  5.68147847e-01  5.70000000e-01  6.91427620e-05 
 5.80000000e-01  5.78174549e-01  5.80000000e-01  6.90668779e-05 
 5.90000000e-01  5.88200052e-01  5.90000000e-01  6.89922748e-05 
 6.00000000e-01  5.98224446e-01  6.00000000e-01  6.89189331e-05 
 6.10000000e-01  6.08247808e-01  6.10000000e-01  6.88468338e-05 
 6.20000000e-01  6.18270210e-01  6.20000000e-01  6.87759580e-05 
 6.30000000e-01  6.28291716e-01  6.30000000e-01  6.87062872e-05 
 6.40000000e-01  6.38312384e-01  6.40000000e-01  6.86378029e-05 
 6.50000000e-01  6.48332266e-01  6.50000000e-01  6.85704869e-05 
 6.60000000e-01  6.58351411e-01  6.60000000e-01  6.85043213e-05 
 6.70000000e-01  6.68369862e-01  6.70000000e-01  6.84392883e-05 
 6.80000000e-01  6.78387660e-01  6.80000000e-01  6.83753705e-05 
 6.90000000e-01  6.88404840e-01  6.90000000e-01  6.83125503e-05 
 7.00000000e-01  6.98421438e-01  7.00000000e-01  6.82508107e-05 
 7.10000000e-01  7.08437485e-01  7.10000000e-01  6.81901347e-05 
 7.20000000e-01  7.18453008e-01  7.20000000e-01  6.81305054e-05 
 7.30000000e-01  7.28468037e-01  7.30000000e-01  6.80719063e-05 
 7.40000000e-01  7.38482594e-01  7.40000000e-01  6.80143209e-05 
 7.50000000e-01  7.48496704e-01  7.50000000e-01  6.79577328e-05 
 7.60000000e-01  7.58510389e-01  7.60000000e-01  6.79021262e-05 
 7.70000000e-01  7.68523667e-01  7.70000000e-01  6.78474849e-05 
 7.80000000e-01  7.78536560e-01  7.80000000e-01  6.77937933e-05 
 7.90000000e-01  7.88549083e-01  7.90000000e-01  6.77410357e-05 
 8.00000000e-01  7.98561253e-01  8.00000000e-01  6.76891968e-05 
 8.10000000e-01  8.08573087e-01  8.10000000e-01  6.76382613e-05 
 8.20000000e-01  8.18584599e-01  8.20000000e-01  6.75882141e-05 
 8.30000000e-01  8.28595802e-01  8.30000000e-01  6.75390404e-05 
 8.40000000e-01  8.38606710e-01  8.40000000e-01  6.74907252e-05 
 8.50000000e-01  8.48617334e-01  8.50000000e-01  6.74432540e-05 
 8.60000000e-01  8.58627687e-01  8.60000000e-01  6.73966125e-05 
 8.70000000e-01  8.68637778e-01  8.70000000e-01  6.73507862e-05 
 8.80000000e-01  8.78647620e-01  8.80000000e-01  6.73057611e-05 
 8.90000000e-01  8.88657220e-01  8.90000000e-01  6.72615232e-05 
 9.00000000e-01  8.98666589e-01  9.00000000e-01  6.72180588e-05 
 9.10000000e-01  9.08675735e-01  9.10000000e-01  6.71753540e-05 
 9.20000000e-01  9.18684666e-01  9.20000000e-01  6.71333955e-05 
 9.30000000e-01  9.28693391e-01  9.30000000e-01  6.70921699e-05 
 9.40000000e-01  9.38701917e-01  9.40000000e-01  6.70516640e-05 
 9.50000000e-01  9.48710251e-01  9.50000000e-01  6.70118647e-05 
 9.60000000e-01  9.58718400e-01  9.60000000e-01  6.69727592e-05 
 9.70000000e-01  9.68726370e-01  9.70000000e-01  6.69343347e-05 
 9.80000000e-01  9.78734168e-01  9.80000000e-01  6.68965787e-05 
 9.90000000e-01  9.88741799e-01  9.90000000e-01  6.68594786e-05 
 1.00000000e+00  9.98749268e-01  1.00000000e+00  6.68230223e-05 
 1.01000000e+00  1.00875658e+00  1.01000000e+00  6.67871975e-05 
 1.02000000e+00  1.01876375e+00  1.02000000e+00  6.67519923e-05 
 1.03000000e+00  1.02877076e+00  1.03000000e+00  6.67173948e-05 
 1.04000000e+00  1.03877764e+00  1.04000000e+00  6.66833933e-05 
 1.05000000e+00  1.04878438e+00  1.05000000e+00  6.66499763e-05 
 1.06000000e+00  1.05879099e+00  1.06000000e+00  6.66171323e-05 
 1.07000000e+00  1.06879747e+00  1.07000000e+00  6.65848500e-05 
 1.08000000e+00  1.07880382e+00  1.08000000e+00  6.65531184e-05 
 1.09000000e+00  1.08881006e+00  1.09000000e+00  6.65219264e-05 
 1.10000000e+00  1.09881618e+00  1.10000000e+00  6.64912632e-05 
 1.11000000e+00  1.10882218e+00  1.11000000e+00  6.64611181e-05 
 1.12000000e+00  1.11882807e+00  1.12000000e+00  6.64314805e-05 
 1.13000000e+00  1.12883386e+00  1.13000000e+00  6.64023400e-05 
 1.14000000e+00  1.13883954e+00  1.14000000e+00  6.63736863e-05 
 1.15000000e+00  1.14884513e+00  1.15000000e+00  6.63455092e-05 
 1.16000000e+00  1.15885061e+00  1.16000000e+00  6.63177987e-05 
 1.17000000e+00  1.16885600e+00  1.17000000e+00  6.62905450e-05 
 1.18000000e+00  1.17886130e+00  1.18000000e+00  6.62637383e-05 
 1.19000000e+00  1.18886650e+00  1.19000000e+00  6.62373689e-05 
 1.20000000e+00  1.19887162e+00  1.20000000e+00  6.62114274e-05 
 1.21000000e+00  1.20887665e+00  1.21000000e+00  6.61859045e-05 
 1.22000000e+00  1.21888160e+00  1.22000000e+00  6.61607909e-05 
 1.23000000e+00  1.22888647e+00  1.23000000e+00  6.61360775e-05 
 1.24000000e+00  1.23889126e+00  1.24000000e+00  6.61117554e-05 
 1.25000000e+00  1.24889597e+00  1.25000000e+00  6.60878157e-05 
 1.26000000e+00  1.25890061e+00  1.26000000e+00  6.60642498e-05 
 1.27000000e+00  1.26890517e+00  1.27000000e+00  6.60410490e-05 
 1.28000000e+00  1.27890966e+00  1.28000000e+00  6.60182049e-05 
 1.29000000e+00  1.28891409e+00  1.29000000e+00  6.59957092e-05 
 1.30000000e+00  1.29891844e+00  1.30000000e+00  6.59735537e-05 
 1.31000000e+00  1.30892273e+00  1.31000000e+00  6.59517303e-05 
 1.32000000e+00  1.31892695e+00  1.32000000e+00  6.59302310e-05 
 1.33000000e+00  1.32893112e+00  1.33000000e+00  6.59090480e-05 
 1.34000000e+00  1.33893522e+00  1.34000000e+00  6.58881737e-05 
 1.35000000e+00  1.34893925e+00  1.35000000e+00  6.58676003e-05 
 1.36000000e+00  1.35894324e+00  1.36000000e+00  6.58473205e-05 
 1.37000000e+00  1.36894716e+00  1.37000000e+00  6.58273268e-05 
 1.38000000e+00  1.37895103e+00  1.38000000e+00  6.58076120e-05 
 1.39000000e+00  1.38895484e+00  1.39000000e+00  6.57881690e-05 
 1.40000000e+00  1.39895860e+00  1.40000000e+00  6.57689908e-05 
 1.41000000e+00  1.40896230e+00  1.41000000e+00  6.57500705e-05 
 1.42000000e+00  1.41896596e+00  1.42000000e+00  6.57314012e-05 
 1.43000000e+00  1.42896956e+00  1.43000000e+00  6.57129764e-05 
 1.44000000e+00  1.43897312e+00  1.44000000e+00  6.56947894e-05 
 1.45000000e+00  1.44897662e+00  1.45000000e+00  6.56768338e-05 
 1.46000000e+00  1.45898008e+00  1.46000000e+00  6.56591033e-05 
 1.47000000e+00  1.46898350e+00  1.47000000e+00  6.56415915e-05 
 1.48000000e+00  1.47898686e+00  1.48000000e+00  6.56242924e-05 
 1.49000000e+00  1.48899019e+00  1.49000000e+00  6.56072000e-05 
 1.50000000e+00  1.49899347e+00  1.50000000e+00  6.55903083e-05 
 1.51000000e+00  1.50899671e+00  1.51000000e+00  6.55736115e-05 
 1.52000000e+00  1.51899991e+00  1.52000000e+00  6.55571038e-05 
 1.53000000e+00  1.52900306e+00  1.53000000e+00  6.55407797e-05 
 1.54000000e+00  1.53900618e+00  1.54000000e+00  6.55246337e-05 
 1.55000000e+00  1.54900926e+00  1.55000000e+00  6.55086603e-05 
 1.56000000e+00  1.55901230e+00  1.56000000e+00  6.54928542e-05 
 1.57000000e+00  1.56901530e+00  1.57000000e+00  6.54772101e-05 
 1.58000000e+00  1.57901826e+00  1.58000000e+00  6.54617231e-05 
 1.59000000e+00  1.58902119e+00  1.59000000e+00  6.54463879e-05 
 1.60000000e+00  1.59902408e+00  1.60000000e+00  6.54311998e-05 
 1.61000000e+00  1.60902694e+00  1.61000000e+00  6.54161538e-05 
 1.62000000e+00  1.61902976e+00  1.62000000e+00  6.54012451e-05 
 1.63000000e+00  1.62903255e+00  1.63000000e+00  6.53864692e-05 
 1.64000000e+00  1.63903531e+00  1.64000000e+00  6.53718215e-05 
 1.65000000e+00  1.64903804e+00  1.65000000e+00  6.53572974e-05 
 1.66000000e+00  1.65904073e+00  1.66000000e+00  6.53428925e-05 
 1.67000000e+00  1.66904339e+00  1.67000000e+00  6.53286026e-05 
 1.68000000e+00  1.67904602e+00  1.68000000e+00  6.53144235e-05 
 1.69000000e+00  1.68904863e+00  1.69000000e+00  6.53003509e-05 
 1.70000000e+00  1.69905120e+00  1.70000000e+00  6.52863808e-05 
 1.71000000e+00  1.70905374e+00  1.71000000e+00  6.52725092e-05 
 1.72000000e+00  1.71905626e+00  1.72000000e+00  6.52587323e-05 
 1.73000000e+00  1.72905874e+00  1.73000000e+00  6.52450462e-05 
 1.74000000e+00  1.73906120e+00  1.74000000e+00  6.52314472e-05 
 1.75000000e+00  1.74906363e+00  1.75000000e+00  6.52179315e-05 
 1.76000000e+00  1.75906604e+00  1.76000000e+00  6.52044957e-05 
 1.77000000e+00  1.76906842e+00  1.77000000e+00  6.51911362e-05 
 1.78000000e+00  1.77907077e+00  1.78000000e+00  6.51778496e-05 
 1.79000000e+00  1.78907310e+00  1.79000000e+00  6.51646324e-05 
 1.80000000e+00  1.79907540e+00  1.80000000e+00  6.51514815e-05 
 1.81000000e+00  1.80907768e+00  1.81000000e+00  6.51383935e-05 
 1.82000000e+00  1.81907994e+00  1.82000000e+00  6.51253653e-05 
 1.83000000e+00  1.82908217e+00  1.83000000e+00  6.51123939e-05 
 1.84000000e+00  1.83908438e+00  1.84000000e+00  6.50994762e-05 
 1.85000000e+00  1.84908656e+00  1.85000000e+00  6.50866092e-05 
 1.86000000e+00  1.85908873e+00  1.86000000e+00  6.50737901e-05 
 1.87000000e+00  1.86909087e+00  1.87000000e+00  6.50610160e-05 
 1.88000000e+00  1.87909299e+00  1.88000000e+00  6.50482842e-05 
 1.89000000e+00  1.88909509e+00  1.89000000e+00  6.50355920e-05 
 1.90000000e+00  1.89909716e+00  1.90000000e+00  6.50229367e-05 
 1.91000000e+00  1.90909922e+00  1.91000000e+00  6.50103158e-05 
 1.92000000e+00  1.91910126e+00  1.92000000e+00  6.49977267e-05 
 1.93000000e+00  1.92910327e+00  1.93000000e+00  6.49851669e-05 
 1.94000000e+00  1.93910527e+00  1.94000000e+00  6.49726341e-05 
 1.95000000e+00  1.94910725e+00  1.95000000e+00  6.49601259e-05 
 1.96000000e+00  1.95910920e+00  1.96000000e+00  6.49476399e-05 
 1.97000000e+00  1.96911114e+00  1.97000000e+00  6.49351740e-05 
 1.98000000e+00  1.97911306e+00  1.98000000e+00  6.49227260e-05 
 1.99000000e+00  1.98911497e+00  1.99000000e+00  6.49102936e-05 
 2.00000000e+00  1.99911685e+00  2.00000000e+00  6.48978748e-05 
 2.01000000e+00  2.00911872e+00  2.01000000e+00  6.48854676e-05 
 2.02000000e+00  2.01912057e+00  2.02000000e+00  6.48730700e-05 
 2.03000000e+00  2.02912240e+00  2.03000000e+00  6.48606799e-05 
 2.04000000e+00  2.03912421e+00  2.04000000e+00  6.48482955e-05 
 2.05000000e+00  2.04912601e+00  2.05000000e+00  6.48359149e-05 
 2.06000000e+00  2.05912780e+00  2.06000000e+00  6.48235363e-05 
 2.07000000e+00  2.06912956e+00  2.07000000e+00  6.48111579e-05 
 2.08000000e+00  2.07913131e+00  2.08000000e+00  6.47987780e-05 
 2.09000000e+00  2.08913305e+00  2.09000000e+00  6.47863948e-05 
 2.10000000e+00  2.09913477e+00  2.10000000e+00  6.47740067e-05 
 2.11000000e+00  2.10913647e+00  2.11000000e+00  6.47616122e-05 
 2.12000000e+00  2.11913816e+00  2.12000000e+00  6.47492095e-05 
 2.13000000e+00  2.12913984e+00  2.13000000e+00  6.47367972e-05 
 2.14000000e+00  2.13914150e+00  2.14000000e+00  6.47243737e-05 
 2.15000000e+00  2.14914315e+00  2.15000000e+00  6.47119376e-05 
 2.16000000e+00  2.15914478e+00  2.16000000e+00  6.46994873e-05 
 2.17000000e+00  2.16914640e+00  2.17000000e+00  6.46870216e-05 
 2.18000000e+00  2.17914800e+00  2.18000000e+00  6.46745389e-05 
 2.19000000e+00  2.18914959e+00  2.19000000e+00  6.46620380e-05 
 2.20000000e+00  2.19915117e+00  2.20000000e+00  6.46495175e-05 
 2.21000000e+00  2.20915274e+00  2.21000000e+00  6.46369761e-05 
 2.22000000e+00  2.21915429e+00  2.22000000e+00  6.46244126e-05 
 2.23000000e+00  2.22915583e+00  2.23000000e+00  6.46118257e-05 
 2.24000000e+00  2.23915736e+00  2.24000000e+00  6.45992141e-05 
 2.25000000e+00  2.24915888e+00  2.25000000e+00  6.45865767e-05 
 2.26000000e+00  2.25916038e+00  2.26000000e+00  6.45739123e-05 
 2.27000000e+00  2.26916187e+00  2.27000000e+00  6.45612198e-05 
 2.28000000e+00  2.27916335e+00  2.28000000e+00  6.45484979e-05 
 2.29000000e+00  2.28916482e+00  2.29000000e+00  6.45357457e-05 
 2.30000000e+00  2.29916628e+00  2.30000000e+00  6.45229620e-05 
 2.31000000e+00  2.30916772e+00  2.31000000e+00  6.45101458e-05 
 2.32000000e+00  2.31916916e+00  2.32000000e+00  6.44972960e-05 
 2.33000000e+00  2.32917058e+00  2.33000000e+00  6.44844115e-05 
 2.34000000e+00  2.33917200e+00  2.34000000e+00  6.44714913e-05 
 2.35000000e+00  2.34917340e+00  2.35000000e+00  6.44585345e-05 
 2.36000000e+00  2.35917479e+00  2.36000000e+00  6.44455400e-05 
 2.37000000e+00  2.36917618e+00  2.37000000e+00  6.44325069e-05 
 2.38000000e+00  2.37917755e+00  2.38000000e+00  6.44194342e-05 
 2.39000000e+00  2.38917891e+00  2.39000000e+00  6.44063209e-05 
 2.40000000e+00  2.39918026e+00  2.40000000e+00  6.43931661e-05 
 2.41000000e+00  2.40918161e+00  2.41000000e+00  6.43799689e-05 
 2.42000000e+00  2.41918294e+00  2.42000000e+00  6.43667283e-05 
 2.43000000e+00  2.42918427e+00  2.43000000e+00  6.43534434e-05 
 2.44000000e+00  2.43918558e+00  2.44000000e+00  6.43401134e-05 
 2.45000000e+00  2.44918689e+00  2.45000000e+00  6.43267372e-05 
 2.46000000e+00  2.45918819e+00  2.46000000e+00  6.43133141e-05 
 2.47000000e+00  2.46918948e+00  2.47000000e+00  6.42998431e-05 
 2.48000000e+00  2.47919076e+00  2.48000000e+00  6.42863234e-05 
 2.49000000e+00  2.48919203e+00  2.49000000e+00  6.42727540e-05 
 2.50000000e+00  2.49919329e+00  2.50000000e+00  6.42591341e-05 
 2.51000000e+00  2.50919455e+00  2.51000000e+00  6.42454627e-05 
 2.52000000e+00  2.51919580e+00  2.52000000e+00  6.42317392e-05 
 2.53000000e+00  2.52919704e+00  2.53000000e+00  6.42179624e-05 
 2.54000000e+00  2.53919827e+00  2.54000000e+00  6.42041316e-05 
 2.55000000e+00  2.54919949e+00  2.55000000e+00  6.41902459e-05 
 2.56000000e+00  2.55920071e+00  2.56000000e+00  6.41763044e-05 
 2.57000000e+00  2.56920192e+00  2.57000000e+00  6.41623062e-05 
 2.58000000e+00  2.57920312e+00  2.58000000e+00  6.41482505e-05 
 2.59000000e+00  2.58920432e+00  2.59000000e+00  6.41341363e-05 
 2.60000000e+00  2.59920550e+00  2.60000000e+00  6.41199628e-05 
 2.61000000e+00  2.60920669e+00  2.61000000e+00  6.41057290e-05 
 2.62000000e+00  2.61920786e+00  2.62000000e+00  6.40914341e-05 
 2.63000000e+00  2.62920903e+00  2.63000000e+00  6.40770770e-05 
 2.64000000e+00  2.63921019e+00  2.64000000e+00  6.40626570e-05 
 2.65000000e+00  2.64921134e+00  2.65000000e+00  6.40481730e-05 
 2.66000000e+00  2.65921249e+00  2.66000000e+00  6.40336241e-05 
 2.67000000e+00  2.66921363e+00  2.67000000e+00  6.40190094e-05 
 2.68000000e+00  2.67921477e+00  2.68000000e+00  6.40043279e-05 
 2.69000000e+00  2.68921590e+00  2.69000000e+00  6.39895786e-05 
 2.70000000e+00  2.69921702e+00  2.70000000e+00  6.39747606e-05 
 2.71000000e+00  2.70921814e+00  2.71000000e+00  6.39598727e-05 
 2.72000000e+00  2.71921925e+00  2.72000000e+00  6.39449140e-05 
 2.73000000e+00  2.72922036e+00  2.73000000e+00  6.39298835e-05 
 2.74000000e+00  2.73922146e+00  2.74000000e+00  6.39147801e-05 
 2.75000000e+00  2.74922256e+00  2.75000000e+00  6.38996027e-05 
 2.76000000e+00  2.75922365e+00  2.76000000e+00  6.38843503e-05 
 2.77000000e+00  2.76922473e+00  2.77000000e+00  6.38690216e-05 
 2.78000000e+00  2.77922581e+00  2.78000000e+00  6.38536156e-05 
 2.79000000e+00  2.78922689e+00  2.79000000e+00  6.38381312e-05 
 2.80000000e+00  2.79922796e+00  2.80000000e+00  6.38225671e-05 
 2.81000000e+00  2.80922903e+00  2.81000000e+00  6.38069222e-05 
 2.82000000e+00  2.81923009e+00  2.82000000e+00  6.37911952e-05 
 2.83000000e+00  2.82923114e+00  2.83000000e+00  6.37753848e-05 
 2.84000000e+00  2.83923220e+00  2.84000000e+00  6.37594898e-05 
 2.85000000e+00  2.84923324e+00  2.85000000e+00  6.37435089e-05 
 2.86000000e+00  2.85923429e+00  2.86000000e+00  6.37274407e-05 
 2.87000000e+00  2.86923533e+00  2.87000000e+00  6.37112839e-05 
 2.88000000e+00  2.87923636e+00  2.88000000e+00  6.36950370e-05 
 2.89000000e+00  2.88923740e+00  2.89000000e+00  6.36786986e-05 
 2.90000000e+00  2.89923842e+00  2.90000000e+00  6.36622672e-05 
 2.91000000e+00  2.90923945e+00  2.91000000e+00  6.36457413e-05 
 2.92000000e+00  2.91924047e+00  2.92000000e+00  6.36291193e-05 
 2.93000000e+00  2.92924148e+00  2.93000000e+00  6.36123997e-05 
 2.94000000e+00  2.93924250e+00  2.94000000e+00  6.35955808e-05 
 2.95000000e+00  2.94924351e+00  2.95000000e+00  6.35786608e-05 
 2.96000000e+00  2.95924451e+00  2.96000000e+00  6.35616382e-05 
 2.97000000e+00  2.96924552e+00  2.97000000e+00  6.35445110e-05 
 2.98000000e+00  2.97924652e+00  2.98000000e+00  6.35272774e-05 
 2.99000000e+00  2.98924752e+00  2.99000000e+00  6.35099355e-05 
 3.00000000e+00  2.99924851e+00  3.00000000e+00  6.34924834e-05 
 3.01000000e+00  3.00924950e+00  3.01000000e+00  6.34749191e-05 
 3.02000000e+00  3.01925049e+00  3.02000000e+00  6.34572404e-05 
 3.03000000e+00  3.02925148e+00  3.03000000e+00  6.34394452e-05 
 3.04000000e+00  3.03925247e+00  3.04000000e+00  6.34215313e-05 
 3.05000000e+00  3.04925345e+00  3.05000000e+00  6.34034963e-05 
 3.06000000e+00  3.05925443e+00  3.06000000e+00  6.33853380e-05 
 3.07000000e+00  3.06925541e+00  3.07000000e+00  6.33670537e-05 
 3.08000000e+00  3.07925638e+00  3.08000000e+00  6.33486411e-05 
 3.09000000e+00  3.08925736e+00  3.09000000e+00  6.33300973e-05 
 3.10000000e+00  3.09925833e+00  3.10000000e+00  6.33114197e-05 
 3.11000000e+00  3.10925931e+00  3.11000000e+00  6.32926053e-05 
 3.12000000e+00  3.11926028e+00  3.12000000e+00  6.32736513e-05 
 3.13000000e+00  3.12926125e+00  3.13000000e+00  6.32545545e-05 
 3.14000000e+00  3.13926221e+00  3.14000000e+00  6.32353116e-05 
 3.15000000e+00  3.14926318e+00  3.15000000e+00  6.32159193e-05 
 3.16000000e+00  3.15926415e+00  3.16000000e+00  6.31963741e-05 
 3.17000000e+00  3.16926512e+00  3.17000000e+00  6.31766722e-05 
 3.18000000e+00  3.17926608e+00  3.18000000e+00  6.31568099e-05 
 3.19000000e+00  3.18926705e+00  3.19000000e+00  6.31367830e-05 
 3.20000000e+00  3.19926801e+00  3.20000000e+00  6.31165874e-05 
 3.21000000e+00  3.20926898e+00  3.21000000e+00  6.30962184e-05 
 3.22000000e+00  3.21926995e+00  3.22000000e+00  6.30756715e-05 
 3.23000000e+00  3.22927092e+00  3.23000000e+00  6.30549415e-05 
 3.24000000e+00  3.23927188e+00  3.24000000e+00  6.30340234e-05 
 3.25000000e+00  3.24927285e+00  3.25000000e+00  6.30129114e-05 
 3.26000000e+00  3.25927383e+00  3.26000000e+00  6.29915997e-05 
 3.27000000e+00  3.26927480e+00  3.27000000e+00  6.29700820e-05 
 3.28000000e+00  3.27927578e+00  3.28000000e+00  6.29483515e-05 
 3.29000000e+00  3.28927675e+00  3.29000000e+00  6.29264010e-05 
 3.30000000e+00  3.29927774e+00  3.30000000e+00  6.29042228e-05 
 3.31000000e+00  3.30927872e+00  3.31000000e+00  6.28818087e-05 
 3.32000000e+00  3.31927971e+00  3.32000000e+00  6.28591496e-05 
 3.33000000e+00  3.32928070e+00  3.33000000e+00  6.28362359e-05 
 3.34000000e+00  3.33928170e+00  3.34000000e+00  6.28130571e-05 
 3.35000000e+00  3.34928270e+00  3.35000000e+00  6.27896016e-05 
 3.36000000e+00  3.35928371e+00  3.36000000e+00  6.27658569e-05 
 3.37000000e+00  3.36928473e+00  3.37000000e+00  6.27418093e-05 
 3.38000000e+00  3.37928575e+00  3.38000000e+00  6.27174434e-05 
 3.39000000e+00  3.38928679e+00  3.39000000e+00  6.26927423e-05 
 3.40000000e+00  3.39928783e+00  3.40000000e+00  6.26676873e-05 
 3.41000000e+00  3.40928888e+00  3.41000000e+00  6.26422573e-05 
 3.42000000e+00  3.41928995e+00  3.42000000e+00  6.26164284e-05 
 3.43000000e+00  3.42929103e+00  3.43000000e+00  6.25901739e-05 
 3.44000000e+00  3.43929213e+00  3.44000000e+00  6.25634632e-05 
 3.45000000e+00  3.44929324e+00  3.45000000e+00  6.25362613e-05 
 3.46000000e+00  3.45929438e+00  3.46000000e+00  6.25085278e-05 
 3.47000000e+00  3.46929554e+00  3.47000000e+00  6.24802163e-05 
 3.48000000e+00  3.47929672e+00  3.48000000e+00  6.24512722e-05 
 3.49000000e+00  3.48929794e+00  3.49000000e+00  6.24216320e-05 
 3.50000000e+00  3.49929919e+00  3.50000000e+00  6.23912207e-05 
 3.51000000e+00  3.50930048e+00  3.51000000e+00  6.23599494e-05 
 3.52000000e+00  3.51930182e+00  3.52000000e+00  6.23277123e-05 
 3.53000000e+00  3.52930322e+00  3.53000000e+00  6.22943828e-05 
 3.54000000e+00  3.53930468e+00  3.54000000e+00  6.22598092e-05 
 3.55000000e+00  3.54930622e+00  3.55000000e+00  6.22238084e-05 
 3.56000000e+00  3.55930785e+00  3.56000000e+00  6.21861599e-05 
 3.57000000e+00  3.56930959e+00  3.57000000e+00  6.21465978e-05 
 3.58000000e+00  3.57931146e+00  3.58000000e+00  6.21048018e-05 
 3.59000000e+00  3.58931348e+00  3.59000000e+00  6.20603880e-05 
 3.60000000e+00  3.59931569e+00  3.60000000e+00  6.20128995e-05 
 3.61000000e+00  3.60931812e+00  3.61000000e+00  6.19617975e-05 
 3.62000000e+00  3.61932080e+00  3.62000000e+00  6.19064562e-05 
 3.63000000e+00  3.62932380e+00  3.63000000e+00  6.18461612e-05 
 3.64000000e+00  3.63932715e+00  3.64000000e+00  6.17801150e-05 
 3.65000000e+00  3.64933092e+00  3.65000000e+00  6.17074514e-05 
 3.66000000e+00  3.65933516e+00  3.66000000e+00  6.16272580e-05 
 3.67000000e+00  3.66933994e+00  3.67000000e+00  6.15386068e-05 
 3.68000000e+00  3.67934532e+00  3.68000000e+00  6.14405896e-05 
 3.69000000e+00  3.68935136e+00  3.69000000e+00  6.13323539e-05 
 3.70000000e+00  3.69935810e+00  3.70000000e+00  6.12131341e-05 
 3.71000000e+00  3.70936560e+00  3.71000000e+00  6.10822752e-05 
 3.72000000e+00  3.71937389e+00  3.72000000e+00  6.09392465e-05 
 3.73000000e+00  3.72938300e+00  3.73000000e+00  6.07836465e-05 
 3.74000000e+00  3.73939296e+00  3.74000000e+00  6.06151990e-05 
 3.75000000e+00  3.74940378e+00  3.75000000e+00  6.04337443e-05 
 3.76000000e+00  3.75941548e+00  3.76000000e+00  6.02392277e-05 
 3.77000000e+00  3.76942806e+00  3.77000000e+00  6.00316865e-05 
 3.78000000e+00  3.77944152e+00  3.78000000e+00  5.98112371e-05 
 3.79000000e+00  3.78945587e+00  3.79000000e+00  5.95780642e-05 
 3.80000000e+00  3.79947110e+00  3.80000000e+00  5.93324109e-05 
 3.81000000e+00  3.80948720e+00  3.81000000e+00  5.90745710e-05 
 3.82000000e+00  3.81950418e+00  3.82000000e+00  5.88048829e-05 
 3.83000000e+00  3.82952203e+00  3.83000000e+00  5.85237245e-05 
 3.84000000e+00  3.83954073e+00  3.84000000e+00  5.82315106e-05 
 3.85000000e+00  3.84956029e+00  3.85000000e+00  5.79286900e-05 
 3.86000000e+00  3.85958070e+00  3.86000000e+00  5.76157450e-05 
 3.87000000e+00  3.86960195e+00  3.87000000e+00  5.72931903e-05 
 3.88000000e+00  3.87962404e+00  3.88000000e+00  5.69615739e-05 
 3.89000000e+00  3.88964697e+00  3.89000000e+00  5.66214778e-05 
 3.90000000e+00  3.89967074e+00  3.90000000e+00  5.62735190e-05 
 3.91000000e+00  3.90969535e+00  3.91000000e+00  5.59183520e-05 
 3.92000000e+00  3.91972080e+00  3.92000000e+00  5.55566706e-05 
 3.93000000e+00  3.92974710e+00  3.93000000e+00  5.51892103e-05 
 3.94000000e+00  3.93977426e+00  3.94000000e+00  5.48167513e-05 
 3.95000000e+00  3.94980229e+00  3.95000000e+00  5.44401213e-05 
 3.96000000e+00  3.95983120e+00  3.96000000e+00  5.40601986e-05 
 3.97000000e+00  3.96986101e+00  3.97000000e+00  5.36779150e-05 
 3.98000000e+00  3.97989176e+00  3.98000000e+00  5.32942587e-05 
 3.99000000e+00  3.98992346e+00  3.99000000e+00  5.29102765e-05 
 4.00000000e+00  3.99995616e+00  4.00000000e+00  5.25270755e-05 
 4.01000000e+00  4.00998989e+00  4.01000000e+00  5.21458242e-05 
 4.02000000e+00  4.02002470e+00  4.02000000e+00  5.17677513e-05 
 4.03000000e+00  4.03006065e+00  4.03000000e+00  5.13941430e-05 
 4.04000000e+00  4.04009780e+00  4.04000000e+00  5.10263379e-05 
 4.05000000e+00  4.05013621e+00  4.05000000e+00  5.06657179e-05 
 4.06000000e+00  4.06017596e+00  4.06000000e+00  5.03136954e-05 
 4.07000000e+00  4.07021713e+00  4.07000000e+00  4.99716952e-05 
 4.08000000e+00  4.08025980e+00  4.08000000e+00  4.96411312e-05 
 4.09000000e+00  4.09030406e+00  4.09000000e+00  4.93233762e-05 
 4.10000000e+00  4.10034999e+00  4.10000000e+00  4.90197273e-05 
 4.11000000e+00  4.11039766e+00  4.11000000e+00  4.87313650e-05 
 4.12000000e+00  4.12044714e+00  4.12000000e+00  4.84593100e-05 
 4.13000000e+00  4.13049846e+00  4.13000000e+00  4.82043799e-05 
 4.14000000e+00  4.14055165e+00  4.14000000e+00  4.79671497e-05 
 4.15000000e+00  4.15060669e+00  4.15000000e+00  4.77479200e-05 
 4.16000000e+00  4.16066354e+00  4.16000000e+00  4.75466991e-05 
 4.17000000e+00  4.17072211e+00  4.17000000e+00  4.73632001e-05 
 4.18000000e+00  4.18078231e+00  4.18000000e+00  4.71968550e-05 
 4.19000000e+00  4.19084400e+00  4.19000000e+00  4.70468466e-05 
 4.20000000e+00  4.20090705e+00  4.20000000e+00  4.69121524e-05 
 4.21000000e+00  4.21097133e+00  4.21000000e+00  4.67915970e-05 
 4.22000000e+00  4.22103671e+00  4.22000000e+00  4.66839084e-05 
 4.23000000e+00  4.23110309e+00  4.23000000e+00  4.65877703e-05 
 4.24000000e+00  4.24117042e+00  4.24000000e+00  4.65018696e-05 
 4.25000000e+00  4.25123865e+00  4.25000000e+00  4.64249337e-05 
 4.26000000e+00  4.26130777e+00  4.26000000e+00  4.63557595e-05 
 4.27000000e+00  4.27137781e+00  4.27000000e+00  4.62932321e-05 
 4.28000000e+00  4.28144881e+00  4.28000000e+00  4.62363357e-05 
 4.29000000e+00  4.29152083e+00  4.29000000e+00  4.61841577e-05 
 4.30000000e+00  4.30159392e+00  4.30000000e+00  4.61358876e-05 
 4.31000000e+00  4.31166817e+00  4.31000000e+00  4.60908124e-05 
 4.32000000e+00  4.32174365e+00  4.32000000e+00  4.60483097e-05 
 4.33000000e+00  4.33182045e+00  4.33000000e+00  4.60078389e-05 
 4.34000000e+00  4.34189869e+00  4.34000000e+00  4.59689323e-05 
 4.35000000e+00  4.35197849e+00  4.35000000e+00  4.59311857e-05 
 4.36000000e+00  4.36205999e+00  4.36000000e+00  4.58942491e-05 
 4.37000000e+00  4.37214337e+00  4.37000000e+00  4.58578186e-05 
 4.38000000e+00  4.38222886e+00  4.38000000e+00  4.58216277e-05 
 4.39000000e+00  4.39231674e+00  4.39000000e+00  4.57854400e-05 
 4.40000000e+00  4.40240735e+00  4.40000000e+00  4.57490423e-05 
 4.41000000e+00  4.41250111e+00  4.41000000e+00  4.57122380e-05 
 4.42000000e+00  4.42259858e+00  4.42000000e+00  4.56748403e-05 
 4.43000000e+00  4.43270044e+00  4.43000000e+00  4.56366669e-05 
 4.44000000e+00  4.44280754e+00  4.44000000e+00  4.55975331e-05 
 4.45000000e+00  4.45292095e+00  4.45000000e+00  4.55572456e-05 
 4.46000000e+00  4.46304206e+00  4.46000000e+00  4.55155952e-05 
 4.47000000e+00  4.47317260e+00  4.47000000e+00  4.54723488e-05 
 4.48000000e+00  4.48331473e+00  4.48000000e+00  4.54272398e-05 
 4.49000000e+00  4.49347127e+00  4.49000000e+00  4.53799562e-05 
 4.50000000e+00  4.50364561e+00  4.50000000e+00  4.53301273e-05 
 4.51000000e+00  4.51384232e+00  4.51000000e+00  4.52773033e-05 
 4.52000000e+00  4.52406701e+00  4.52000000e+00  4.52209349e-05 
 4.53000000e+00  4.53432725e+00  4.53000000e+00  4.51603384e-05 
 4.54000000e+00  4.54463159e+00  4.54000000e+00  4.50946695e-05 
 4.55000000e+00  4.55499203e+00  4.55000000e+00  4.50228576e-05 
 4.56000000e+00  4.56542323e+00  4.56000000e+00  4.49435553e-05 
 4.57000000e+00  4.57594670e+00  4.57000000e+00  4.48550158e-05 
 4.58000000e+00  4.58657565e+00  4.58000000e+00  4.47552143e-05 
 4.59000000e+00  4.59735298e+00  4.59000000e+00  4.46412210e-05 
 4.60000000e+00  4.60831191e+00  4.60000000e+00  4.45096166e-05 
 4.61000000e+00  4.61949874e+00  4.61000000e+00  4.43560724e-05 
 4.62000000e+00  4.63096655e+00  4.62000000e+00  4.41754107e-05 
 4.63000000e+00  4.64344235e+00  4.63000000e+00  4.39393114e-05 
 4.64000000e+00  4.65619490e+00  4.64000000e+00  4.36615056e-05 
 4.65000000e+00  4.66983385e+00  4.65000000e+00  4.33128944e-05 
 4.66000000e+00  4.68453813e+00  4.66000000e+00  4.28739954e-05 
 4.67000000e+00  4.70203229e+00  4.67000000e+00  4.22419387e-05 
 4.68000000e+00  4.72308713e+00  4.68000000e+00  4.13285055e-05 
 4.69000000e+00  4.75304337e+00  4.69000000e+00  3.96997816e-05 
 4.70000000e+00  4.81407058e+00  4.70000000e+00  3.51627344e-05 
 4.71000000e+00  4.99069860e+00  4.71000000e+00  1.22360683e-05 
 4.72000000e+00  4.99925213e+00  4.72000000e+00  1.07494375e-05 
 4.73000000e+00  4.99988350e+00  4.73000000e+00  1.06382139e-05 
 4.74000000e+00  4.99997193e+00  4.74000000e+00  1.06226319e-05 
 4.75000000e+00  4.99999047e+00  4.75000000e+00  1.06193638e-05 
 4.76000000e+00  4.99999578e+00  4.76000000e+00  1.06184293e-05 
 4.77000000e+00  4.99999770e+00  4.77000000e+00  1.06180904e-05 
 4.78000000e+00  4.99999853e+00  4.78000000e+00  1.06179432e-05 
 4.79000000e+00  4.99999895e+00  4.79000000e+00  1.06178699e-05 
 4.80000000e+00  4.99999918e+00  4.80000000e+00  1.06178297e-05 
 4.81000000e+00  4.99999931e+00  4.81000000e+00  1.06178059e-05 
 4.82000000e+00  4.99999939e+00  4.82000000e+00  1.06177911e-05 
 4.83000000e+00  4.99999945e+00  4.83000000e+00  1.06177817e-05 
 4.84000000e+00  4.99999948e+00  4.84000000e+00  1.06177757e-05 
 4.85000000e+00  4.99999950e+00  4.85000000e+00  1.06177720e-05 
 4.86000000e+00  4.99999951e+00  4.86000000e+00  1.06177698e-05 
 4.87000000e+00  4.99999952e+00  4.87000000e+00  1.06177689e-05 
 4.88000000e+00  4.99999952e+00  4.88000000e+00  1.06177688e-05 
 4.89000000e+00  4.99999952e+00  4.89000000e+00  1.06177695e-05 
 4.90000000e+00  4.99999951e+00  4.90000000e+00  1.06177708e-05 
 4.91000000e+00  4.99999950e+00  4.91000000e+00  1.06177726e-05 
 4.92000000e+00  4.99999948e+00  4.92000000e+00  1.06177749e-05 
 4.93000000e+00  4.99999947e+00  4.93000000e+00  1.06177777e-05 
 4.94000000e+00  4.99999945e+00  4.94000000e+00  1.06177808e-05 
 4.95000000e+00  4.99999943e+00  4.95000000e+00  1.06177844e-05 
 4.96000000e+00  4.99999941e+00  4.96000000e+00  1.06177883e-05 
 4.97000000e+00  4.99999938e+00  4.97000000e+00  1.06177927e-05 
 4.98000000e+00  4.99999936e+00  4.98000000e+00  1.06177974e-05 
 4.99000000e+00  4.99999933e+00  4.99000000e+00  1.06178026e-05 
 5.00000000e+00  4.99999930e+00  5.00000000e+00  1.06178083e-05 
