 0.00000000e+00  8.51258939e-03  0.00000000e+00  4.70925320e-06 
 1.00000000e-02  1.11814945e-02  1.00000000e-02  4.70866480e-06 
 2.00000000e-02  1.84122277e-02  2.00000000e-02  4.70705910e-06 
 3.00000000e-02  2.79625250e-02  3.00000000e-02  4.70491360e-06 
 4.00000000e-02  3.79249962e-02  4.00000000e-02  4.70265047e-06 
 5.00000000e-02  4.79753819e-02  5.00000000e-02  4.70034599e-06 
 6.00000000e-02  5.80446366e-02  6.00000000e-02  4.69801869e-06 
 7.00000000e-02  6.81141152e-02  7.00000000e-02  4.69567473e-06 
 8.00000000e-02  7.81785496e-02  8.00000000e-02  4.69331648e-06 
 9.00000000e-02  8.82368402e-02  9.00000000e-02  4.69094491e-06 
 1.00000000e-01  9.82891898e-02  1.00000000e-01  4.68856039e-06 
 1.10000000e-01  1.08336258e-01  1.10000000e-01  4.68616296e-06 
 1.20000000e-01  1.18378669e-01  1.20000000e-01  4.68375256e-06 
 1.30000000e-01  1.28417190e-01  1.30000000e-01  4.68132900e-06 
 1.40000000e-01  1.38452359e-01  1.40000000e-01  4.67889207e-06 
 1.50000000e-01  1.48484572e-01  1.50000000e-01  4.67644155e-06 
 1.60000000e-01  1.58514299e-01  1.60000000e-01  4.67397717e-06 
 1.70000000e-01  1.68541840e-01  1.70000000e-01  4.67149864e-06 
 1.80000000e-01  1.78567466e-01  1.80000000e-01  4.66900569e-06 
 1.90000000e-01  1.88591405e-01  1.90000000e-01  4.66649801e-06 
 2.00000000e-01  1.98613863e-01  2.00000000e-01  4.66397530e-06 
 2.10000000e-01  2.08634967e-01  2.10000000e-01  4.66143723e-06 
 2.20000000e-01  2.18654847e-01  2.20000000e-01  4.65888348e-06 
 2.30000000e-01  2.28673662e-01  2.30000000e-01  4.65631369e-06 
 2.40000000e-01  2.38691492e-01  2.40000000e-01  4.65372749e-06 
 2.50000000e-01  2.48708425e-01  2.50000000e-01  4.65112452e-06 
 2.60000000e-01  2.58724543e-01  2.60000000e-01  4.64850439e-06 
 2.70000000e-01  2.68739894e-01  2.70000000e-01  4.64586669e-06 
 2.80000000e-01  2.78754556e-01  2.80000000e-01  4.64321099e-06 
 2.90000000e-01  2.88768575e-01  2.90000000e-01  4.64053686e-06 
 3.00000000e-01  2.98781998e-01  3.00000000e-01  4.63784384e-06 
 3.10000000e-01  3.08794866e-01  3.10000000e-01  4.63513143e-06 
 3.20000000e-01  3.18807113e-01  3.20000000e-01  4.63279170e-06 
 3.30000000e-01  3.28819085e-01  3.30000000e-01  4.62964645e-06 
 3.40000000e-01  3.38830502e-01  3.40000000e-01  4.62687278e-06 
 3.50000000e-01  3.48841495e-01  3.50000000e-01  4.62407756e-06 
 3.60000000e-01  3.58852091e-01  3.60000000e-01  4.62126017e-06 
 3.70000000e-01  3.68862314e-01  3.70000000e-01  4.61841997e-06 
 3.80000000e-01  3.78872180e-01  3.80000000e-01  4.61555627e-06 
 3.90000000e-01  3.88881715e-01  3.90000000e-01  4.61266834e-06 
 4.00000000e-01  3.98890936e-01  4.00000000e-01  4.60975542e-06 
 4.10000000e-01  4.08899861e-01  4.10000000e-01  4.60681669e-06 
 4.20000000e-01  4.18908563e-01  4.20000000e-01  4.60385127e-06 
 4.30000000e-01  4.28916880e-01  4.30000000e-01  4.60085828e-06 
 4.40000000e-01  4.38925003e-01  4.40000000e-01  4.59783667e-06 
 4.50000000e-01  4.48932887e-01  4.50000000e-01  4.59478541e-06 
 4.60000000e-01  4.58940470e-01  4.60000000e-01  4.59170336e-06 
 4.70000000e-01  4.68947984e-01  4.70000000e-01  4.58858924e-06 
 4.80000000e-01  4.78955219e-01  4.80000000e-01  4.58544175e-06 
 4.90000000e-01  4.88962258e-01  4.90000000e-01  4.58225943e-06 
 5.00000000e-01  4.98969112e-01  5.00000000e-01  4.57904068e-06 
 5.10000000e-01  5.08975790e-01  5.10000000e-01  4.57578376e-06 
 5.20000000e-01  5.18982300e-01  5.20000000e-01  4.57248675e-06 
 5.30000000e-01  5.28988651e-01  5.30000000e-01  4.56914750e-06 
 5.40000000e-01  5.38994850e-01  5.40000000e-01  4.56576365e-06 
 5.50000000e-01  5.49000907e-01  5.50000000e-01  4.56233253e-06 
 5.60000000e-01  5.59006883e-01  5.60000000e-01  4.55885111e-06 
 5.70000000e-01  5.69012619e-01  5.70000000e-01  4.55531604e-06 
 5.80000000e-01  5.79018290e-01  5.80000000e-01  4.55172331e-06 
 5.90000000e-01  5.89023038e-01  5.90000000e-01  4.54806858e-06 
 6.00000000e-01  5.99028339e-01  6.00000000e-01  4.54434629e-06 
 6.10000000e-01  6.09034650e-01  6.10000000e-01  4.54055017e-06 
 6.20000000e-01  6.19039912e-01  6.20000000e-01  4.53667315e-06 
 6.30000000e-01  6.29045898e-01  6.30000000e-01  4.53270592e-06 
 6.40000000e-01  6.39050195e-01  6.40000000e-01  4.52863849e-06 
 6.50000000e-01  6.49055237e-01  6.50000000e-01  4.52445672e-06 
 6.60000000e-01  6.59060226e-01  6.60000000e-01  4.52014428e-06 
 6.70000000e-01  6.69065176e-01  6.70000000e-01  4.51568020e-06 
 6.80000000e-01  6.79070102e-01  6.80000000e-01  4.51103758e-06 
 6.90000000e-01  6.89075023e-01  6.90000000e-01  4.50618147e-06 
 7.00000000e-01  6.99079965e-01  7.00000000e-01  4.50106569e-06 
 7.10000000e-01  7.09084957e-01  7.10000000e-01  4.49562844e-06 
 7.20000000e-01  7.19090042e-01  7.20000000e-01  4.48978569e-06 
 7.30000000e-01  7.29095276e-01  7.30000000e-01  4.48342171e-06 
 7.40000000e-01  7.39100735e-01  7.40000000e-01  4.47637523e-06 
 7.50000000e-01  7.49106530e-01  7.50000000e-01  4.46841984e-06 
 7.60000000e-01  7.59112810e-01  7.60000000e-01  4.45923711e-06 
 7.70000000e-01  7.69119790e-01  7.70000000e-01  4.44838280e-06 
 7.80000000e-01  7.79127762e-01  7.80000000e-01  4.43525107e-06 
 7.90000000e-01  7.89137119e-01  7.90000000e-01  4.41905125e-06 
 8.00000000e-01  7.99148352e-01  8.00000000e-01  4.39882441e-06 
 8.10000000e-01  8.09162029e-01  8.10000000e-01  4.37353148e-06 
 8.20000000e-01  8.19178733e-01  8.20000000e-01  4.34222163e-06 
 8.30000000e-01  8.29198991e-01  8.30000000e-01  4.30423688e-06 
 8.40000000e-01  8.39223210e-01  8.40000000e-01  4.25936841e-06 
 8.50000000e-01  8.49251656e-01  8.50000000e-01  4.20790243e-06 
 8.60000000e-01  8.59284468e-01  8.60000000e-01  4.15055947e-06 
 8.70000000e-01  8.69321697e-01  8.70000000e-01  4.08837718e-06 
 8.80000000e-01  8.79363333e-01  8.80000000e-01  4.02258607e-06 
 8.90000000e-01  8.89409342e-01  8.90000000e-01  3.95450356e-06 
 9.00000000e-01  8.99459669e-01  9.00000000e-01  3.88545155e-06 
 9.10000000e-01  9.09514251e-01  9.10000000e-01  3.81669388e-06 
 9.20000000e-01  9.19573020e-01  9.20000000e-01  3.74938829e-06 
 9.30000000e-01  9.29635896e-01  9.30000000e-01  3.68454971e-06 
 9.40000000e-01  9.39702789e-01  9.40000000e-01  3.62302325e-06 
 9.50000000e-01  9.49773597e-01  9.50000000e-01  3.56546708e-06 
 9.60000000e-01  9.59848204e-01  9.60000000e-01  3.51234552e-06 
 9.70000000e-01  9.69926485e-01  9.70000000e-01  3.46393275e-06 
 9.80000000e-01  9.80008302e-01  9.80000000e-01  3.42032625e-06 
 9.90000000e-01  9.90093510e-01  9.90000000e-01  3.38146860e-06 
 1.00000000e+00  1.00018196e+00  1.00000000e+00  3.34717510e-06 
 1.01000000e+00  1.01027349e+00  1.01000000e+00  3.31717570e-06 
 1.02000000e+00  1.02036796e+00  1.02000000e+00  3.29108823e-06 
 1.03000000e+00  1.03046519e+00  1.03000000e+00  3.26856128e-06 
 1.04000000e+00  1.04056500e+00  1.04000000e+00  3.24918407e-06 
 1.05000000e+00  1.05066736e+00  1.05000000e+00  3.23256043e-06 
 1.06000000e+00  1.06077203e+00  1.06000000e+00  3.21831645e-06 
 1.07000000e+00  1.07087891e+00  1.07000000e+00  3.20610464e-06 
 1.08000000e+00  1.08098796e+00  1.08000000e+00  3.19562264e-06 
 1.09000000e+00  1.09109911e+00  1.09000000e+00  3.18656029e-06 
 1.10000000e+00  1.10121236e+00  1.10000000e+00  3.17859017e-06 
 1.11000000e+00  1.11132779e+00  1.11000000e+00  3.17185882e-06 
 1.12000000e+00  1.12144551e+00  1.12000000e+00  3.16580174e-06 
 1.13000000e+00  1.13156573e+00  1.13000000e+00  3.16042021e-06 
 1.14000000e+00  1.14168875e+00  1.14000000e+00  3.15557819e-06 
 1.15000000e+00  1.15181498e+00  1.15000000e+00  3.15117141e-06 
 1.16000000e+00  1.16194495e+00  1.16000000e+00  3.14711353e-06 
 1.17000000e+00  1.17207938e+00  1.17000000e+00  3.14333324e-06 
 1.18000000e+00  1.18221918e+00  1.18000000e+00  3.13977184e-06 
 1.19000000e+00  1.19236550e+00  1.19000000e+00  3.13638106e-06 
 1.20000000e+00  1.20251982e+00  1.20000000e+00  3.13312121e-06 
 1.21000000e+00  1.21268401e+00  1.21000000e+00  3.12995964e-06 
 1.22000000e+00  1.22286044e+00  1.22000000e+00  3.12686933e-06 
 1.23000000e+00  1.23305212e+00  1.23000000e+00  3.12382785e-06 
 1.24000000e+00  1.24326284e+00  1.24000000e+00  3.12081635e-06 
 1.25000000e+00  1.25349736e+00  1.25000000e+00  3.11781878e-06 
 1.26000000e+00  1.26376188e+00  1.26000000e+00  3.11482112e-06 
 1.27000000e+00  1.27406413e+00  1.27000000e+00  3.11181082e-06 
 1.28000000e+00  1.28441442e+00  1.28000000e+00  3.10877605e-06 
 1.29000000e+00  1.29482425e+00  1.29000000e+00  3.10570576e-06 
 1.30000000e+00  1.30531166e+00  1.30000000e+00  3.10258764e-06 
 1.31000000e+00  1.31589415e+00  1.31000000e+00  3.09941005e-06 
 1.32000000e+00  1.32660109e+00  1.32000000e+00  3.09615780e-06 
 1.33000000e+00  1.33746528e+00  1.33000000e+00  3.09281448e-06 
 1.34000000e+00  1.34853328e+00  1.34000000e+00  3.08935873e-06 
 1.35000000e+00  1.35985047e+00  1.35000000e+00  3.08576888e-06 
 1.36000000e+00  1.37178445e+00  1.36000000e+00  3.08190898e-06 
 1.37000000e+00  1.38407312e+00  1.37000000e+00  3.07785876e-06 
 1.38000000e+00  1.39707654e+00  1.38000000e+00  3.07347754e-06 
 1.39000000e+00  1.41108185e+00  1.39000000e+00  3.06863999e-06 
 1.40000000e+00  1.42640519e+00  1.40000000e+00  3.06319852e-06 
 1.41000000e+00  1.44490861e+00  1.41000000e+00  3.05636267e-06 
 1.42000000e+00  1.46768311e+00  1.42000000e+00  3.04754458e-06 
 1.43000000e+00  1.50155775e+00  1.43000000e+00  3.03336276e-06 
 1.44000000e+00  1.59990561e+00  1.44000000e+00  2.97799951e-06 
 1.45000000e+00  1.79063995e+00  1.45000000e+00  8.37760751e-07 
 1.46000000e+00  1.79853316e+00  1.46000000e+00  5.14051704e-07 
 1.47000000e+00  1.79966519e+00  1.47000000e+00  4.65356268e-07 
 1.48000000e+00  1.79989819e+00  1.48000000e+00  4.55262085e-07 
 1.49000000e+00  1.79996083e+00  1.49000000e+00  4.52544051e-07 
 1.50000000e+00  1.79998171e+00  1.50000000e+00  4.51637632e-07 
 1.51000000e+00  1.79998999e+00  1.51000000e+00  4.51277983e-07 
 1.52000000e+00  1.79999376e+00  1.52000000e+00  4.51113804e-07 
 1.53000000e+00  1.79999569e+00  1.53000000e+00  4.51029939e-07 
 1.54000000e+00  1.79999677e+00  1.54000000e+00  4.50983064e-07 
 1.55000000e+00  1.79999741e+00  1.55000000e+00  4.50954910e-07 
 1.56000000e+00  1.79999782e+00  1.56000000e+00  4.50937000e-07 
 1.57000000e+00  1.79999812e+00  1.57000000e+00  4.50925069e-07 
 1.58000000e+00  1.79999829e+00  1.58000000e+00  4.50916823e-07 
 1.59000000e+00  1.79999842e+00  1.59000000e+00  4.50910953e-07 
 1.60000000e+00  1.79999852e+00  1.60000000e+00  4.50906674e-07 
 1.61000000e+00  1.79999859e+00  1.61000000e+00  4.50903496e-07 
 1.62000000e+00  1.79999865e+00  1.62000000e+00  4.50901099e-07 
 1.63000000e+00  1.79999869e+00  1.63000000e+00  4.50899268e-07 
 1.64000000e+00  1.79999872e+00  1.64000000e+00  4.50897857e-07 
 1.65000000e+00  1.79999874e+00  1.65000000e+00  4.50896761e-07 
 1.66000000e+00  1.79999876e+00  1.66000000e+00  4.50895904e-07 
 1.67000000e+00  1.79999878e+00  1.67000000e+00  4.50895230e-07 
 1.68000000e+00  1.79999879e+00  1.68000000e+00  4.50894699e-07 
 1.69000000e+00  1.79999880e+00  1.69000000e+00  4.50894279e-07 
 1.70000000e+00  1.79999881e+00  1.70000000e+00  4.50893945e-07 
 1.71000000e+00  1.79999881e+00  1.71000000e+00  4.50893680e-07 
 1.72000000e+00  1.79999882e+00  1.72000000e+00  4.50893468e-07 
 1.73000000e+00  1.79999898e+00  1.73000000e+00  4.50893300e-07 
 1.74000000e+00  1.79999883e+00  1.74000000e+00  4.50893166e-07 
 1.75000000e+00  1.79999885e+00  1.75000000e+00  4.50893058e-07 
 1.76000000e+00  1.80000052e+00  1.76000000e+00  4.50892972e-07 
 1.77000000e+00  1.79999896e+00  1.77000000e+00  4.50892904e-07 
 1.78000000e+00  1.79999886e+00  1.78000000e+00  4.50892849e-07 
 1.79000000e+00  1.79999883e+00  1.79000000e+00  4.50892805e-07 
 1.80000000e+00  1.79999883e+00  1.80000000e+00  4.50892769e-07 
 1.81000000e+00  1.79999884e+00  1.81000000e+00  4.50892741e-07 
 1.82000000e+00  1.79999884e+00  1.82000000e+00  4.50892719e-07 
 1.83000000e+00  1.79999884e+00  1.83000000e+00  4.50892700e-07 
 1.84000000e+00  1.79999884e+00  1.84000000e+00  4.50892686e-07 
 1.85000000e+00  1.79999884e+00  1.85000000e+00  4.50892674e-07 
 1.86000000e+00  1.79999884e+00  1.86000000e+00  4.50892665e-07 
 1.87000000e+00  1.79999884e+00  1.87000000e+00  4.50892658e-07 
 1.88000000e+00  1.79999894e+00  1.88000000e+00  4.50892652e-07 
 1.89000000e+00  1.79999884e+00  1.89000000e+00  4.50892647e-07 
 1.90000000e+00  1.79999884e+00  1.90000000e+00  4.50892643e-07 
 1.91000000e+00  1.79999884e+00  1.91000000e+00  4.50892640e-07 
 1.92000000e+00  1.79999885e+00  1.92000000e+00  4.50892637e-07 
 1.93000000e+00  1.79999884e+00  1.93000000e+00  4.50892635e-07 
 1.94000000e+00  1.79999884e+00  1.94000000e+00  4.50892634e-07 
 1.95000000e+00  1.79999884e+00  1.95000000e+00  4.50892632e-07 
 1.96000000e+00  1.79999884e+00  1.96000000e+00  4.50892631e-07 
 1.97000000e+00  1.79999884e+00  1.97000000e+00  4.50892631e-07 
 1.98000000e+00  1.79999884e+00  1.98000000e+00  4.50892630e-07 
 1.99000000e+00  1.79999884e+00  1.99000000e+00  4.50892630e-07 
 2.00000000e+00  1.79999884e+00  2.00000000e+00  4.50892629e-07 
 2.01000000e+00  1.79999884e+00  2.01000000e+00  4.50892629e-07 
 2.02000000e+00  1.79999884e+00  2.02000000e+00  4.50892628e-07 
 2.03000000e+00  1.79999884e+00  2.03000000e+00  4.50892628e-07 
 2.04000000e+00  1.79999885e+00  2.04000000e+00  4.50892628e-07 
 2.05000000e+00  1.79999885e+00  2.05000000e+00  4.50892628e-07 
 2.06000000e+00  1.79999885e+00  2.06000000e+00  4.50892628e-07 
 2.07000000e+00  1.79999885e+00  2.07000000e+00  4.50892628e-07 
 2.08000000e+00  1.79999885e+00  2.08000000e+00  4.50892627e-07 
 2.09000000e+00  1.79999885e+00  2.09000000e+00  4.50892627e-07 
 2.10000000e+00  1.79999885e+00  2.10000000e+00  4.50892628e-07 
 2.11000000e+00  1.79999885e+00  2.11000000e+00  4.50892627e-07 
 2.12000000e+00  1.79999885e+00  2.12000000e+00  4.50892627e-07 
 2.13000000e+00  1.79999885e+00  2.13000000e+00  4.50892628e-07 
 2.14000000e+00  1.79999885e+00  2.14000000e+00  4.50892628e-07 
 2.15000000e+00  1.79999885e+00  2.15000000e+00  4.50892628e-07 
 2.16000000e+00  1.79999885e+00  2.16000000e+00  4.50892627e-07 
 2.17000000e+00  1.79999885e+00  2.17000000e+00  4.50892627e-07 
 2.18000000e+00  1.79999884e+00  2.18000000e+00  4.50892627e-07 
 2.19000000e+00  1.79999884e+00  2.19000000e+00  4.50892627e-07 
 2.20000000e+00  1.79999885e+00  2.20000000e+00  4.50892627e-07 
 2.21000000e+00  1.79999885e+00  2.21000000e+00  4.50892627e-07 
 2.22000000e+00  1.79999885e+00  2.22000000e+00  4.50892627e-07 
 2.23000000e+00  1.79999885e+00  2.23000000e+00  4.50892627e-07 
 2.24000000e+00  1.79999884e+00  2.24000000e+00  4.50892627e-07 
 2.25000000e+00  1.79999884e+00  2.25000000e+00  4.50892627e-07 
 2.26000000e+00  1.79999884e+00  2.26000000e+00  4.50892628e-07 
 2.27000000e+00  1.79999884e+00  2.27000000e+00  4.50892627e-07 
 2.28000000e+00  1.79999884e+00  2.28000000e+00  4.50892627e-07 
 2.29000000e+00  1.79999884e+00  2.29000000e+00  4.50892628e-07 
 2.30000000e+00  1.79999884e+00  2.30000000e+00  4.50892627e-07 
 2.31000000e+00  1.79999884e+00  2.31000000e+00  4.50892627e-07 
 2.32000000e+00  1.79999884e+00  2.32000000e+00  4.50892627e-07 
 2.33000000e+00  1.79999884e+00  2.33000000e+00  4.50892627e-07 
 2.34000000e+00  1.79999884e+00  2.34000000e+00  4.50892627e-07 
 2.35000000e+00  1.79999884e+00  2.35000000e+00  4.50892627e-07 
 2.36000000e+00  1.79999884e+00  2.36000000e+00  4.50892627e-07 
 2.37000000e+00  1.79999884e+00  2.37000000e+00  4.50892628e-07 
 2.38000000e+00  1.79999884e+00  2.38000000e+00  4.50892627e-07 
 2.39000000e+00  1.79999884e+00  2.39000000e+00  4.50892627e-07 
 2.40000000e+00  1.79999884e+00  2.40000000e+00  4.50892627e-07 
 2.41000000e+00  1.79999884e+00  2.41000000e+00  4.50892627e-07 
 2.42000000e+00  1.79999884e+00  2.42000000e+00  4.50892627e-07 
 2.43000000e+00  1.79999884e+00  2.43000000e+00  4.50892627e-07 
 2.44000000e+00  1.79999884e+00  2.44000000e+00  4.50892627e-07 
 2.45000000e+00  1.79999884e+00  2.45000000e+00  4.50892627e-07 
 2.46000000e+00  1.79999884e+00  2.46000000e+00  4.50892627e-07 
 2.47000000e+00  1.79999884e+00  2.47000000e+00  4.50892627e-07 
 2.48000000e+00  1.79999884e+00  2.48000000e+00  4.50892627e-07 
 2.49000000e+00  1.79999884e+00  2.49000000e+00  4.50892627e-07 
 2.50000000e+00  1.79999884e+00  2.50000000e+00  4.50892627e-07 
 2.51000000e+00  1.79999884e+00  2.51000000e+00  4.50892627e-07 
 2.52000000e+00  1.79999965e+00  2.52000000e+00  4.50892627e-07 
 2.53000000e+00  1.79999884e+00  2.53000000e+00  4.50892627e-07 
 2.54000000e+00  1.79999884e+00  2.54000000e+00  4.50892627e-07 
 2.55000000e+00  1.79999884e+00  2.55000000e+00  4.50892628e-07 
 2.56000000e+00  1.79999884e+00  2.56000000e+00  4.50892628e-07 
 2.57000000e+00  1.79999884e+00  2.57000000e+00  4.50892627e-07 
 2.58000000e+00  1.79999884e+00  2.58000000e+00  4.50892627e-07 
 2.59000000e+00  1.79999884e+00  2.59000000e+00  4.50892628e-07 
 2.60000000e+00  1.79999884e+00  2.60000000e+00  4.50892627e-07 
 2.61000000e+00  1.79999884e+00  2.61000000e+00  4.50892627e-07 
 2.62000000e+00  1.79999884e+00  2.62000000e+00  4.50892628e-07 
 2.63000000e+00  1.79999884e+00  2.63000000e+00  4.50892627e-07 
 2.64000000e+00  1.79999884e+00  2.64000000e+00  4.50892627e-07 
 2.65000000e+00  1.79999884e+00  2.65000000e+00  4.50892627e-07 
 2.66000000e+00  1.79999884e+00  2.66000000e+00  4.50892627e-07 
 2.67000000e+00  1.79999884e+00  2.67000000e+00  4.50892628e-07 
 2.68000000e+00  1.79999884e+00  2.68000000e+00  4.50892627e-07 
 2.69000000e+00  1.79999884e+00  2.69000000e+00  4.50892627e-07 
 2.70000000e+00  1.79999884e+00  2.70000000e+00  4.50892627e-07 
 2.71000000e+00  1.79999884e+00  2.71000000e+00  4.50892627e-07 
 2.72000000e+00  1.79999884e+00  2.72000000e+00  4.50892627e-07 
 2.73000000e+00  1.79999884e+00  2.73000000e+00  4.50892627e-07 
 2.74000000e+00  1.79999884e+00  2.74000000e+00  4.50892627e-07 
 2.75000000e+00  1.79999884e+00  2.75000000e+00  4.50892627e-07 
 2.76000000e+00  1.79999884e+00  2.76000000e+00  4.50892627e-07 
 2.77000000e+00  1.79999884e+00  2.77000000e+00  4.50892628e-07 
 2.78000000e+00  1.79999884e+00  2.78000000e+00  4.50892627e-07 
 2.79000000e+00  1.79999884e+00  2.79000000e+00  4.50892627e-07 
 2.80000000e+00  1.79999884e+00  2.80000000e+00  4.50892627e-07 
 2.81000000e+00  1.79999884e+00  2.81000000e+00  4.50892627e-07 
 2.82000000e+00  1.79999884e+00  2.82000000e+00  4.50892627e-07 
 2.83000000e+00  1.79999884e+00  2.83000000e+00  4.50892627e-07 
 2.84000000e+00  1.79999884e+00  2.84000000e+00  4.50892627e-07 
 2.85000000e+00  1.79999884e+00  2.85000000e+00  4.50892627e-07 
 2.86000000e+00  1.79999884e+00  2.86000000e+00  4.50892627e-07 
 2.87000000e+00  1.79999884e+00  2.87000000e+00  4.50892627e-07 
 2.88000000e+00  1.79999884e+00  2.88000000e+00  4.50892627e-07 
 2.89000000e+00  1.79999884e+00  2.89000000e+00  4.50892627e-07 
 2.90000000e+00  1.79999884e+00  2.90000000e+00  4.50892628e-07 
 2.91000000e+00  1.79999884e+00  2.91000000e+00  4.50892627e-07 
 2.92000000e+00  1.79999884e+00  2.92000000e+00  4.50892627e-07 
 2.93000000e+00  1.79999884e+00  2.93000000e+00  4.50892628e-07 
 2.94000000e+00  1.79999884e+00  2.94000000e+00  4.50892627e-07 
 2.95000000e+00  1.79999884e+00  2.95000000e+00  4.50892627e-07 
 2.96000000e+00  1.79999884e+00  2.96000000e+00  4.50892627e-07 
 2.97000000e+00  1.79999884e+00  2.97000000e+00  4.50892627e-07 
 2.98000000e+00  1.79999884e+00  2.98000000e+00  4.50892627e-07 
 2.99000000e+00  1.79999884e+00  2.99000000e+00  4.50892627e-07 
 3.00000000e+00  1.79999884e+00  3.00000000e+00  4.50892627e-07 
 3.01000000e+00  1.79999884e+00  3.01000000e+00  4.50892627e-07 
 3.02000000e+00  1.79999884e+00  3.02000000e+00  4.50892627e-07 
 3.03000000e+00  1.79999884e+00  3.03000000e+00  4.50892627e-07 
 3.04000000e+00  1.79999884e+00  3.04000000e+00  4.50892627e-07 
 3.05000000e+00  1.79999884e+00  3.05000000e+00  4.50892627e-07 
 3.06000000e+00  1.79999884e+00  3.06000000e+00  4.50892628e-07 
 3.07000000e+00  1.79999884e+00  3.07000000e+00  4.50892627e-07 
 3.08000000e+00  1.79999884e+00  3.08000000e+00  4.50892627e-07 
 3.09000000e+00  1.79999884e+00  3.09000000e+00  4.50892628e-07 
 3.10000000e+00  1.79999884e+00  3.10000000e+00  4.50892627e-07 
 3.11000000e+00  1.79999884e+00  3.11000000e+00  4.50892627e-07 
 3.12000000e+00  1.79999884e+00  3.12000000e+00  4.50892627e-07 
 3.13000000e+00  1.79999884e+00  3.13000000e+00  4.50892627e-07 
 3.14000000e+00  1.79999884e+00  3.14000000e+00  4.50892627e-07 
 3.15000000e+00  1.79999884e+00  3.15000000e+00  4.50892628e-07 
 3.16000000e+00  1.79999884e+00  3.16000000e+00  4.50892627e-07 
 3.17000000e+00  1.79999884e+00  3.17000000e+00  4.50892628e-07 
 3.18000000e+00  1.79999884e+00  3.18000000e+00  4.50892627e-07 
 3.19000000e+00  1.79999885e+00  3.19000000e+00  4.50892628e-07 
 3.20000000e+00  1.79999885e+00  3.20000000e+00  4.50892627e-07 
 3.21000000e+00  1.79999885e+00  3.21000000e+00  4.50892627e-07 
 3.22000000e+00  1.79999885e+00  3.22000000e+00  4.50892628e-07 
 3.23000000e+00  1.79999885e+00  3.23000000e+00  4.50892628e-07 
 3.24000000e+00  1.79999885e+00  3.24000000e+00  4.50892628e-07 
 3.25000000e+00  1.79999885e+00  3.25000000e+00  4.50892628e-07 
 3.26000000e+00  1.79999885e+00  3.26000000e+00  4.50892628e-07 
 3.27000000e+00  1.79999885e+00  3.27000000e+00  4.50892628e-07 
 3.28000000e+00  1.79999905e+00  3.28000000e+00  4.50892628e-07 
 3.29000000e+00  1.79999884e+00  3.29000000e+00  4.50892628e-07 
 3.30000000e+00  1.79999884e+00  3.30000000e+00  4.50892628e-07 
 3.31000000e+00  1.79999884e+00  3.31000000e+00  4.50892628e-07 
 3.32000000e+00  1.79999884e+00  3.32000000e+00  4.50892628e-07 
 3.33000000e+00  1.79999884e+00  3.33000000e+00  4.50892628e-07 
 3.34000000e+00  1.79999884e+00  3.34000000e+00  4.50892628e-07 
 3.35000000e+00  1.79999884e+00  3.35000000e+00  4.50892628e-07 
 3.36000000e+00  1.79999884e+00  3.36000000e+00  4.50892628e-07 
 3.37000000e+00  1.79999884e+00  3.37000000e+00  4.50892629e-07 
 3.38000000e+00  1.79999884e+00  3.38000000e+00  4.50892629e-07 
 3.39000000e+00  1.79999884e+00  3.39000000e+00  4.50892629e-07 
 3.40000000e+00  1.79999884e+00  3.40000000e+00  4.50892629e-07 
 3.41000000e+00  1.79999884e+00  3.41000000e+00  4.50892629e-07 
 3.42000000e+00  1.79999884e+00  3.42000000e+00  4.50892629e-07 
 3.43000000e+00  1.79999884e+00  3.43000000e+00  4.50892629e-07 
 3.44000000e+00  1.79999884e+00  3.44000000e+00  4.50892630e-07 
 3.45000000e+00  1.79999884e+00  3.45000000e+00  4.50892630e-07 
 3.46000000e+00  1.79999884e+00  3.46000000e+00  4.50892630e-07 
 3.47000000e+00  1.79999884e+00  3.47000000e+00  4.50892630e-07 
 3.48000000e+00  1.79999884e+00  3.48000000e+00  4.50892631e-07 
 3.49000000e+00  1.79999884e+00  3.49000000e+00  4.50892631e-07 
 3.50000000e+00  1.79999884e+00  3.50000000e+00  4.50892631e-07 
 3.51000000e+00  1.79999884e+00  3.51000000e+00  4.50892631e-07 
 3.52000000e+00  1.79999884e+00  3.52000000e+00  4.50892632e-07 
 3.53000000e+00  1.79999884e+00  3.53000000e+00  4.50892632e-07 
 3.54000000e+00  1.79999884e+00  3.54000000e+00  4.50892633e-07 
 3.55000000e+00  1.79999884e+00  3.55000000e+00  4.50892633e-07 
 3.56000000e+00  1.79999884e+00  3.56000000e+00  4.50892634e-07 
 3.57000000e+00  1.79999884e+00  3.57000000e+00  4.50892634e-07 
 3.58000000e+00  1.79999884e+00  3.58000000e+00  4.50892635e-07 
 3.59000000e+00  1.79999884e+00  3.59000000e+00  4.50892635e-07 
 3.60000000e+00  1.79999884e+00  3.60000000e+00  4.50892636e-07 
 3.61000000e+00  1.79999884e+00  3.61000000e+00  4.50892637e-07 
 3.62000000e+00  1.79999884e+00  3.62000000e+00  4.50892638e-07 
 3.63000000e+00  1.79999884e+00  3.63000000e+00  4.50892638e-07 
 3.64000000e+00  1.79999884e+00  3.64000000e+00  4.50892639e-07 
 3.65000000e+00  1.79999884e+00  3.65000000e+00  4.50892640e-07 
 3.66000000e+00  1.79999884e+00  3.66000000e+00  4.50892641e-07 
 3.67000000e+00  1.79999884e+00  3.67000000e+00  4.50892642e-07 
 3.68000000e+00  1.79999884e+00  3.68000000e+00  4.50892644e-07 
 3.69000000e+00  1.79999884e+00  3.69000000e+00  4.50892645e-07 
 3.70000000e+00  1.79999884e+00  3.70000000e+00  4.50892646e-07 
 3.71000000e+00  1.79999884e+00  3.71000000e+00  4.50892648e-07 
 3.72000000e+00  1.79999884e+00  3.72000000e+00  4.50892650e-07 
 3.73000000e+00  1.79999884e+00  3.73000000e+00  4.50892652e-07 
 3.74000000e+00  1.79999884e+00  3.74000000e+00  4.50892653e-07 
 3.75000000e+00  1.79999884e+00  3.75000000e+00  4.50892655e-07 
 3.76000000e+00  1.79999884e+00  3.76000000e+00  4.50892657e-07 
 3.77000000e+00  1.79999884e+00  3.77000000e+00  4.50892659e-07 
 3.78000000e+00  1.79999884e+00  3.78000000e+00  4.50892662e-07 
 3.79000000e+00  1.79999884e+00  3.79000000e+00  4.50892664e-07 
 3.80000000e+00  1.79999884e+00  3.80000000e+00  4.50892667e-07 
 3.81000000e+00  1.79999884e+00  3.81000000e+00  4.50892670e-07 
 3.82000000e+00  1.79999884e+00  3.82000000e+00  4.50892673e-07 
 3.83000000e+00  1.79999884e+00  3.83000000e+00  4.50892677e-07 
 3.84000000e+00  1.79999884e+00  3.84000000e+00  4.50892680e-07 
 3.85000000e+00  1.79999884e+00  3.85000000e+00  4.50892684e-07 
 3.86000000e+00  1.79999884e+00  3.86000000e+00  4.50892688e-07 
 3.87000000e+00  1.79999884e+00  3.87000000e+00  4.50892692e-07 
 3.88000000e+00  1.79999884e+00  3.88000000e+00  4.50892697e-07 
 3.89000000e+00  1.79999884e+00  3.89000000e+00  4.50892702e-07 
 3.90000000e+00  1.79999884e+00  3.90000000e+00  4.50892707e-07 
 3.91000000e+00  1.79999884e+00  3.91000000e+00  4.50892712e-07 
 3.92000000e+00  1.79999884e+00  3.92000000e+00  4.50892718e-07 
 3.93000000e+00  1.79999884e+00  3.93000000e+00  4.50892724e-07 
 3.94000000e+00  1.79999884e+00  3.94000000e+00  4.50892731e-07 
 3.95000000e+00  1.79999884e+00  3.95000000e+00  4.50892738e-07 
 3.96000000e+00  1.79999884e+00  3.96000000e+00  4.50892745e-07 
 3.97000000e+00  1.79999884e+00  3.97000000e+00  4.50892753e-07 
 3.98000000e+00  1.79999884e+00  3.98000000e+00  4.50892761e-07 
 3.99000000e+00  1.79999883e+00  3.99000000e+00  4.50892770e-07 
 4.00000000e+00  1.79999883e+00  4.00000000e+00  4.50892779e-07 
 4.01000000e+00  1.79999883e+00  4.01000000e+00  4.50892789e-07 
 4.02000000e+00  1.79999883e+00  4.02000000e+00  4.50892799e-07 
 4.03000000e+00  1.79999883e+00  4.03000000e+00  4.50892810e-07 
 4.04000000e+00  1.79999883e+00  4.04000000e+00  4.50892822e-07 
 4.05000000e+00  1.79999883e+00  4.05000000e+00  4.50892834e-07 
 4.06000000e+00  1.79999883e+00  4.06000000e+00  4.50892847e-07 
 4.07000000e+00  1.79999883e+00  4.07000000e+00  4.50892860e-07 
 4.08000000e+00  1.79999883e+00  4.08000000e+00  4.50892875e-07 
 4.09000000e+00  1.79999883e+00  4.09000000e+00  4.50892890e-07 
 4.10000000e+00  1.79999883e+00  4.10000000e+00  4.50892906e-07 
 4.11000000e+00  1.79999883e+00  4.11000000e+00  4.50892922e-07 
 4.12000000e+00  1.79999883e+00  4.12000000e+00  4.50892940e-07 
 4.13000000e+00  1.79999883e+00  4.13000000e+00  4.50892959e-07 
 4.14000000e+00  1.79999883e+00  4.14000000e+00  4.50892979e-07 
 4.15000000e+00  1.79999883e+00  4.15000000e+00  4.50892999e-07 
 4.16000000e+00  1.79999883e+00  4.16000000e+00  4.50893021e-07 
 4.17000000e+00  1.79999883e+00  4.17000000e+00  4.50893044e-07 
 4.18000000e+00  1.79999883e+00  4.18000000e+00  4.50893068e-07 
 4.19000000e+00  1.79999883e+00  4.19000000e+00  4.50893094e-07 
 4.20000000e+00  1.79999883e+00  4.20000000e+00  4.50893120e-07 
 4.21000000e+00  1.79999883e+00  4.21000000e+00  4.50893149e-07 
 4.22000000e+00  1.79999883e+00  4.22000000e+00  4.50893178e-07 
 4.23000000e+00  1.79999882e+00  4.23000000e+00  4.50893209e-07 
 4.24000000e+00  1.79999882e+00  4.24000000e+00  4.50893242e-07 
 4.25000000e+00  1.79999882e+00  4.25000000e+00  4.50893276e-07 
 4.26000000e+00  1.79999882e+00  4.26000000e+00  4.50893311e-07 
 4.27000000e+00  1.79999882e+00  4.27000000e+00  4.50893349e-07 
 4.28000000e+00  1.79999882e+00  4.28000000e+00  4.50893389e-07 
 4.29000000e+00  1.79999882e+00  4.29000000e+00  4.50893430e-07 
 4.30000000e+00  1.79999882e+00  4.30000000e+00  4.50893473e-07 
 4.31000000e+00  1.79999882e+00  4.31000000e+00  4.50893519e-07 
 4.32000000e+00  1.79999882e+00  4.32000000e+00  4.50893567e-07 
 4.33000000e+00  1.79999882e+00  4.33000000e+00  4.50893617e-07 
 4.34000000e+00  1.79999881e+00  4.34000000e+00  4.50893669e-07 
 4.35000000e+00  1.79999881e+00  4.35000000e+00  4.50893724e-07 
 4.36000000e+00  1.79999881e+00  4.36000000e+00  4.50893781e-07 
 4.37000000e+00  1.79999881e+00  4.37000000e+00  4.50893842e-07 
 4.38000000e+00  1.79999881e+00  4.38000000e+00  4.50893904e-07 
 4.39000000e+00  1.79999881e+00  4.39000000e+00  4.50893970e-07 
 4.40000000e+00  1.79999881e+00  4.40000000e+00  4.50894039e-07 
 4.41000000e+00  1.79999880e+00  4.41000000e+00  4.50894111e-07 
 4.42000000e+00  1.79999880e+00  4.42000000e+00  4.50894186e-07 
 4.43000000e+00  1.79999880e+00  4.43000000e+00  4.50894265e-07 
 4.44000000e+00  1.79999880e+00  4.44000000e+00  4.50894347e-07 
 4.45000000e+00  1.79999880e+00  4.45000000e+00  4.50894433e-07 
 4.46000000e+00  1.79999879e+00  4.46000000e+00  4.50894523e-07 
 4.47000000e+00  1.79999879e+00  4.47000000e+00  4.50894617e-07 
 4.48000000e+00  1.79999879e+00  4.48000000e+00  4.50894714e-07 
 4.49000000e+00  1.79999879e+00  4.49000000e+00  4.50894817e-07 
 4.50000000e+00  1.79999879e+00  4.50000000e+00  4.50894924e-07 
 4.51000000e+00  1.79999878e+00  4.51000000e+00  4.50895035e-07 
 4.52000000e+00  1.79999878e+00  4.52000000e+00  4.50895151e-07 
 4.53000000e+00  1.79999878e+00  4.53000000e+00  4.50895273e-07 
 4.54000000e+00  1.79999878e+00  4.54000000e+00  4.50895399e-07 
 4.55000000e+00  1.79999877e+00  4.55000000e+00  4.50895531e-07 
 4.56000000e+00  1.79999877e+00  4.56000000e+00  4.50895669e-07 
 4.57000000e+00  1.79999877e+00  4.57000000e+00  4.50895813e-07 
 4.58000000e+00  1.79999876e+00  4.58000000e+00  4.50895963e-07 
 4.59000000e+00  1.79999876e+00  4.59000000e+00  4.50896119e-07 
 4.60000000e+00  1.79999875e+00  4.60000000e+00  4.50896282e-07 
 4.61000000e+00  1.79999875e+00  4.61000000e+00  4.50896452e-07 
 4.62000000e+00  1.79999875e+00  4.62000000e+00  4.50896629e-07 
 4.63000000e+00  1.79999874e+00  4.63000000e+00  4.50896813e-07 
 4.64000000e+00  1.79999874e+00  4.64000000e+00  4.50897005e-07 
 4.65000000e+00  1.79999873e+00  4.65000000e+00  4.50897206e-07 
 4.66000000e+00  1.79999873e+00  4.66000000e+00  4.50897414e-07 
 4.67000000e+00  1.79999872e+00  4.67000000e+00  4.50897631e-07 
 4.68000000e+00  1.79999872e+00  4.68000000e+00  4.50897857e-07 
 4.69000000e+00  1.79999871e+00  4.69000000e+00  4.50898093e-07 
 4.70000000e+00  1.79999871e+00  4.70000000e+00  4.50898338e-07 
 4.71000000e+00  1.79999870e+00  4.71000000e+00  4.50898594e-07 
 4.72000000e+00  1.79999870e+00  4.72000000e+00  4.50898860e-07 
 4.73000000e+00  1.79999869e+00  4.73000000e+00  4.50899137e-07 
 4.74000000e+00  1.79999868e+00  4.74000000e+00  4.50899425e-07 
 4.75000000e+00  1.79999868e+00  4.75000000e+00  4.50899725e-07 
 4.76000000e+00  1.79999867e+00  4.76000000e+00  4.50900038e-07 
 4.77000000e+00  1.79999866e+00  4.77000000e+00  4.50900363e-07 
 4.78000000e+00  1.79999865e+00  4.78000000e+00  4.50900701e-07 
 4.79000000e+00  1.79999865e+00  4.79000000e+00  4.50901054e-07 
 4.80000000e+00  1.79999864e+00  4.80000000e+00  4.50901420e-07 
 4.81000000e+00  1.79999863e+00  4.81000000e+00  4.50901802e-07 
 4.82000000e+00  1.79999862e+00  4.82000000e+00  4.50902199e-07 
 4.83000000e+00  1.79999861e+00  4.83000000e+00  4.50902612e-07 
 4.84000000e+00  1.79999860e+00  4.84000000e+00  4.50903042e-07 
 4.85000000e+00  1.79999859e+00  4.85000000e+00  4.50903490e-07 
 4.86000000e+00  1.79999858e+00  4.86000000e+00  4.50903955e-07 
 4.87000000e+00  1.79999857e+00  4.87000000e+00  4.50904440e-07 
 4.88000000e+00  1.79999856e+00  4.88000000e+00  4.50904945e-07 
 4.89000000e+00  1.79999855e+00  4.89000000e+00  4.50905470e-07 
 4.90000000e+00  1.79999853e+00  4.90000000e+00  4.50906016e-07 
 4.91000000e+00  1.79999852e+00  4.91000000e+00  4.50906585e-07 
 4.92000000e+00  1.79999851e+00  4.92000000e+00  4.50907177e-07 
 4.93000000e+00  1.79999849e+00  4.93000000e+00  4.50907793e-07 
 4.94000000e+00  1.79999848e+00  4.94000000e+00  4.50908434e-07 
 4.95000000e+00  1.79999846e+00  4.95000000e+00  4.50909101e-07 
 4.96000000e+00  1.79999845e+00  4.96000000e+00  4.50909796e-07 
 4.97000000e+00  1.79999843e+00  4.97000000e+00  4.50910519e-07 
 4.98000000e+00  1.79999841e+00  4.98000000e+00  4.50911272e-07 
 4.99000000e+00  1.79999840e+00  4.99000000e+00  4.50912055e-07 
 5.00000000e+00  1.79999838e+00  5.00000000e+00  4.50912871e-07 
