 0.00000000e+00  5.46935792e-02  0.00000000e+00  6.68493936e-05 
 1.00000000e-02  5.54677838e-02  1.00000000e-02  6.68377263e-05 
 2.00000000e-02  5.64018842e-02  2.00000000e-02  6.68236626e-05 
 3.00000000e-02  5.75513622e-02  3.00000000e-02  6.68063761e-05 
 4.00000000e-02  5.90015305e-02  4.00000000e-02  6.67845989e-05 
 5.00000000e-02  6.08906505e-02  5.00000000e-02  6.67562819e-05 
 6.00000000e-02  6.34558570e-02  6.00000000e-02  6.67179250e-05 
 7.00000000e-02  6.71195462e-02  7.00000000e-02  6.66633301e-05 
 8.00000000e-02  7.25765806e-02  8.00000000e-02  6.65824193e-05 
 9.00000000e-02  8.04624140e-02  9.00000000e-02  6.64663592e-05 
 1.00000000e-01  9.03181052e-02  1.00000000e-01  6.63227483e-05 
 1.10000000e-01  1.00962570e-01  1.10000000e-01  6.61694690e-05 
 1.20000000e-01  1.11713555e-01  1.20000000e-01  6.60166253e-05 
 1.30000000e-01  1.22361526e-01  1.30000000e-01  6.58672503e-05 
 1.40000000e-01  1.32874795e-01  1.40000000e-01  6.57217705e-05 
 1.50000000e-01  1.43271639e-01  1.50000000e-01  6.55798985e-05 
 1.60000000e-01  1.53578823e-01  1.60000000e-01  6.54412334e-05 
 1.70000000e-01  1.63819774e-01  1.70000000e-01  6.53054266e-05 
 1.80000000e-01  1.74012359e-01  1.80000000e-01  6.51722101e-05 
 1.90000000e-01  1.84169501e-01  1.90000000e-01  6.50413857e-05 
 2.00000000e-01  1.94300361e-01  2.00000000e-01  6.49128080e-05 
 2.10000000e-01  2.04411422e-01  2.10000000e-01  6.47863685e-05 
 2.20000000e-01  2.14507293e-01  2.20000000e-01  6.46619841e-05 
 2.30000000e-01  2.24591295e-01  2.30000000e-01  6.45395895e-05 
 2.40000000e-01  2.34665850e-01  2.40000000e-01  6.44191314e-05 
 2.50000000e-01  2.44732755e-01  2.50000000e-01  6.43005651e-05 
 2.60000000e-01  2.54793363e-01  2.60000000e-01  6.41838517e-05 
 2.70000000e-01  2.64848710e-01  2.70000000e-01  6.40689567e-05 
 2.80000000e-01  2.74899601e-01  2.80000000e-01  6.39558488e-05 
 2.90000000e-01  2.84946673e-01  2.90000000e-01  6.38444991e-05 
 3.00000000e-01  2.94990434e-01  3.00000000e-01  6.37348804e-05 
 3.10000000e-01  3.05031297e-01  3.10000000e-01  6.36269669e-05 
 3.20000000e-01  3.15069601e-01  3.20000000e-01  6.35207339e-05 
 3.30000000e-01  3.25105626e-01  3.30000000e-01  6.34161577e-05 
 3.40000000e-01  3.35139610e-01  3.40000000e-01  6.33132152e-05 
 3.50000000e-01  3.45171752e-01  3.50000000e-01  6.32118839e-05 
 3.60000000e-01  3.55202224e-01  3.60000000e-01  6.31121419e-05 
 3.70000000e-01  3.65231175e-01  3.70000000e-01  6.30139676e-05 
 3.80000000e-01  3.75258731e-01  3.80000000e-01  6.29173400e-05 
 3.90000000e-01  3.85285007e-01  3.90000000e-01  6.28222383e-05 
 4.00000000e-01  3.95310101e-01  4.00000000e-01  6.27286420e-05 
 4.10000000e-01  4.05334101e-01  4.10000000e-01  6.26365310e-05 
 4.20000000e-01  4.15357086e-01  4.20000000e-01  6.25458853e-05 
 4.30000000e-01  4.25379126e-01  4.30000000e-01  6.24566853e-05 
 4.40000000e-01  4.35400283e-01  4.40000000e-01  6.23689116e-05 
 4.50000000e-01  4.45420615e-01  4.50000000e-01  6.22825449e-05 
 4.60000000e-01  4.55440174e-01  4.60000000e-01  6.21975663e-05 
 4.70000000e-01  4.65459006e-01  4.70000000e-01  6.21139570e-05 
 4.80000000e-01  4.75477155e-01  4.80000000e-01  6.20316982e-05 
 4.90000000e-01  4.85494661e-01  4.90000000e-01  6.19507717e-05 
 5.00000000e-01  4.95511558e-01  5.00000000e-01  6.18711591e-05 
 5.10000000e-01  5.05527881e-01  5.10000000e-01  6.17928425e-05 
 5.20000000e-01  5.15543661e-01  5.20000000e-01  6.17158038e-05 
 5.30000000e-01  5.25558925e-01  5.30000000e-01  6.16400253e-05 
 5.40000000e-01  5.35573701e-01  5.40000000e-01  6.15654896e-05 
 5.50000000e-01  5.45588012e-01  5.50000000e-01  6.14921791e-05 
 5.60000000e-01  5.55601881e-01  5.60000000e-01  6.14200767e-05 
 5.70000000e-01  5.65615331e-01  5.70000000e-01  6.13491652e-05 
 5.80000000e-01  5.75628380e-01  5.80000000e-01  6.12794278e-05 
 5.90000000e-01  5.85641047e-01  5.90000000e-01  6.12108476e-05 
 6.00000000e-01  5.95653350e-01  6.00000000e-01  6.11434081e-05 
 6.10000000e-01  6.05665304e-01  6.10000000e-01  6.10770927e-05 
 6.20000000e-01  6.15676926e-01  6.20000000e-01  6.10118852e-05 
 6.30000000e-01  6.25688229e-01  6.30000000e-01  6.09477694e-05 
 6.40000000e-01  6.35699228e-01  6.40000000e-01  6.08847293e-05 
 6.50000000e-01  6.45709934e-01  6.50000000e-01  6.08227489e-05 
 6.60000000e-01  6.55720361e-01  6.60000000e-01  6.07618127e-05 
 6.70000000e-01  6.65730518e-01  6.70000000e-01  6.07019049e-05 
 6.80000000e-01  6.75740418e-01  6.80000000e-01  6.06430102e-05 
 6.90000000e-01  6.85750070e-01  6.90000000e-01  6.05851133e-05 
 7.00000000e-01  6.95759483e-01  7.00000000e-01  6.05281990e-05 
 7.10000000e-01  7.05768668e-01  7.10000000e-01  6.04722524e-05 
 7.20000000e-01  7.15777632e-01  7.20000000e-01  6.04172585e-05 
 7.30000000e-01  7.25786384e-01  7.30000000e-01  6.03632027e-05 
 7.40000000e-01  7.35794932e-01  7.40000000e-01  6.03100704e-05 
 7.50000000e-01  7.45803283e-01  7.50000000e-01  6.02578471e-05 
 7.60000000e-01  7.55811443e-01  7.60000000e-01  6.02065186e-05 
 7.70000000e-01  7.65819421e-01  7.70000000e-01  6.01560707e-05 
 7.80000000e-01  7.75827222e-01  7.80000000e-01  6.01064894e-05 
 7.90000000e-01  7.85834852e-01  7.90000000e-01  6.00577609e-05 
 8.00000000e-01  7.95842317e-01  8.00000000e-01  6.00098713e-05 
 8.10000000e-01  8.05849623e-01  8.10000000e-01  5.99628071e-05 
 8.20000000e-01  8.15856774e-01  8.20000000e-01  5.99165548e-05 
 8.30000000e-01  8.25863777e-01  8.30000000e-01  5.98711011e-05 
 8.40000000e-01  8.35870636e-01  8.40000000e-01  5.98264328e-05 
 8.50000000e-01  8.45877354e-01  8.50000000e-01  5.97825369e-05 
 8.60000000e-01  8.55883938e-01  8.60000000e-01  5.97394005e-05 
 8.70000000e-01  8.65890391e-01  8.70000000e-01  5.96970107e-05 
 8.80000000e-01  8.75896717e-01  8.80000000e-01  5.96553549e-05 
 8.90000000e-01  8.85902919e-01  8.90000000e-01  5.96144207e-05 
 9.00000000e-01  8.95909003e-01  9.00000000e-01  5.95741956e-05 
 9.10000000e-01  9.05914971e-01  9.10000000e-01  5.95346674e-05 
 9.20000000e-01  9.15920826e-01  9.20000000e-01  5.94958240e-05 
 9.30000000e-01  9.25926573e-01  9.30000000e-01  5.94576534e-05 
 9.40000000e-01  9.35932213e-01  9.40000000e-01  5.94201438e-05 
 9.50000000e-01  9.45937751e-01  9.50000000e-01  5.93832834e-05 
 9.60000000e-01  9.55943189e-01  9.60000000e-01  5.93470607e-05 
 9.70000000e-01  9.65948529e-01  9.70000000e-01  5.93114642e-05 
 9.80000000e-01  9.75953775e-01  9.80000000e-01  5.92764826e-05 
 9.90000000e-01  9.85958930e-01  9.90000000e-01  5.92421047e-05 
 1.00000000e+00  9.95963995e-01  1.00000000e+00  5.92083194e-05 
 1.01000000e+00  1.00596897e+00  1.01000000e+00  5.91751159e-05 
 1.02000000e+00  1.01597387e+00  1.02000000e+00  5.91424832e-05 
 1.03000000e+00  1.02597868e+00  1.03000000e+00  5.91104107e-05 
 1.04000000e+00  1.03598341e+00  1.04000000e+00  5.90788879e-05 
 1.05000000e+00  1.04598806e+00  1.05000000e+00  5.90479043e-05 
 1.06000000e+00  1.05599264e+00  1.06000000e+00  5.90174496e-05 
 1.07000000e+00  1.06599714e+00  1.07000000e+00  5.89875137e-05 
 1.08000000e+00  1.07600157e+00  1.08000000e+00  5.89580865e-05 
 1.09000000e+00  1.08600592e+00  1.09000000e+00  5.89291580e-05 
 1.10000000e+00  1.09601021e+00  1.10000000e+00  5.89007185e-05 
 1.11000000e+00  1.10601444e+00  1.11000000e+00  5.88727583e-05 
 1.12000000e+00  1.11601859e+00  1.12000000e+00  5.88452678e-05 
 1.13000000e+00  1.12602268e+00  1.13000000e+00  5.88182375e-05 
 1.14000000e+00  1.13602671e+00  1.14000000e+00  5.87916582e-05 
 1.15000000e+00  1.14603068e+00  1.15000000e+00  5.87655207e-05 
 1.16000000e+00  1.15603459e+00  1.16000000e+00  5.87398158e-05 
 1.17000000e+00  1.16603844e+00  1.17000000e+00  5.87145347e-05 
 1.18000000e+00  1.17604223e+00  1.18000000e+00  5.86896684e-05 
 1.19000000e+00  1.18604597e+00  1.19000000e+00  5.86652083e-05 
 1.20000000e+00  1.19604965e+00  1.20000000e+00  5.86411457e-05 
 1.21000000e+00  1.20605328e+00  1.21000000e+00  5.86174721e-05 
 1.22000000e+00  1.21605686e+00  1.22000000e+00  5.85941792e-05 
 1.23000000e+00  1.22606039e+00  1.23000000e+00  5.85712588e-05 
 1.24000000e+00  1.23606386e+00  1.24000000e+00  5.85487026e-05 
 1.25000000e+00  1.24606729e+00  1.25000000e+00  5.85265026e-05 
 1.26000000e+00  1.25607067e+00  1.26000000e+00  5.85046509e-05 
 1.27000000e+00  1.26607400e+00  1.27000000e+00  5.84831397e-05 
 1.28000000e+00  1.27607729e+00  1.28000000e+00  5.84619613e-05 
 1.29000000e+00  1.28608053e+00  1.29000000e+00  5.84411080e-05 
 1.30000000e+00  1.29608372e+00  1.30000000e+00  5.84205726e-05 
 1.31000000e+00  1.30608688e+00  1.31000000e+00  5.84003474e-05 
 1.32000000e+00  1.31608999e+00  1.32000000e+00  5.83804254e-05 
 1.33000000e+00  1.32609306e+00  1.33000000e+00  5.83607993e-05 
 1.34000000e+00  1.33609609e+00  1.34000000e+00  5.83414621e-05 
 1.35000000e+00  1.34609908e+00  1.35000000e+00  5.83224068e-05 
 1.36000000e+00  1.35610203e+00  1.36000000e+00  5.83036266e-05 
 1.37000000e+00  1.36610494e+00  1.37000000e+00  5.82851148e-05 
 1.38000000e+00  1.37610781e+00  1.38000000e+00  5.82668648e-05 
 1.39000000e+00  1.38611065e+00  1.39000000e+00  5.82488699e-05 
 1.40000000e+00  1.39611345e+00  1.40000000e+00  5.82311239e-05 
 1.41000000e+00  1.40611621e+00  1.41000000e+00  5.82136203e-05 
 1.42000000e+00  1.41611894e+00  1.42000000e+00  5.81963530e-05 
 1.43000000e+00  1.42612163e+00  1.43000000e+00  5.81793157e-05 
 1.44000000e+00  1.43612429e+00  1.44000000e+00  5.81625026e-05 
 1.45000000e+00  1.44612692e+00  1.45000000e+00  5.81459076e-05 
 1.46000000e+00  1.45612952e+00  1.46000000e+00  5.81295250e-05 
 1.47000000e+00  1.46613208e+00  1.47000000e+00  5.81133489e-05 
 1.48000000e+00  1.47613461e+00  1.48000000e+00  5.80973738e-05 
 1.49000000e+00  1.48613711e+00  1.49000000e+00  5.80815940e-05 
 1.50000000e+00  1.49613958e+00  1.50000000e+00  5.80660043e-05 
 1.51000000e+00  1.50614202e+00  1.51000000e+00  5.80505991e-05 
 1.52000000e+00  1.51614443e+00  1.52000000e+00  5.80353732e-05 
 1.53000000e+00  1.52614681e+00  1.53000000e+00  5.80203214e-05 
 1.54000000e+00  1.53614916e+00  1.54000000e+00  5.80054387e-05 
 1.55000000e+00  1.54615149e+00  1.55000000e+00  5.79907200e-05 
 1.56000000e+00  1.55615379e+00  1.56000000e+00  5.79761604e-05 
 1.57000000e+00  1.56615606e+00  1.57000000e+00  5.79617551e-05 
 1.58000000e+00  1.57615830e+00  1.58000000e+00  5.79474994e-05 
 1.59000000e+00  1.58616052e+00  1.59000000e+00  5.79333885e-05 
 1.60000000e+00  1.59616271e+00  1.60000000e+00  5.79194180e-05 
 1.61000000e+00  1.60616487e+00  1.61000000e+00  5.79055834e-05 
 1.62000000e+00  1.61616701e+00  1.62000000e+00  5.78918801e-05 
 1.63000000e+00  1.62616913e+00  1.63000000e+00  5.78783040e-05 
 1.64000000e+00  1.63617122e+00  1.64000000e+00  5.78648507e-05 
 1.65000000e+00  1.64617329e+00  1.65000000e+00  5.78515161e-05 
 1.66000000e+00  1.65617533e+00  1.66000000e+00  5.78382962e-05 
 1.67000000e+00  1.66617735e+00  1.67000000e+00  5.78251868e-05 
 1.68000000e+00  1.67617935e+00  1.68000000e+00  5.78121841e-05 
 1.69000000e+00  1.68618133e+00  1.69000000e+00  5.77992842e-05 
 1.70000000e+00  1.69618328e+00  1.70000000e+00  5.77864834e-05 
 1.71000000e+00  1.70618521e+00  1.71000000e+00  5.77737779e-05 
 1.72000000e+00  1.71618712e+00  1.72000000e+00  5.77611640e-05 
 1.73000000e+00  1.72618901e+00  1.73000000e+00  5.77486383e-05 
 1.74000000e+00  1.73619088e+00  1.74000000e+00  5.77361973e-05 
 1.75000000e+00  1.74619273e+00  1.75000000e+00  5.77238375e-05 
 1.76000000e+00  1.75619455e+00  1.76000000e+00  5.77115555e-05 
 1.77000000e+00  1.76619636e+00  1.77000000e+00  5.76993481e-05 
 1.78000000e+00  1.77619815e+00  1.78000000e+00  5.76872121e-05 
 1.79000000e+00  1.78619992e+00  1.79000000e+00  5.76751443e-05 
 1.80000000e+00  1.79620166e+00  1.80000000e+00  5.76631416e-05 
 1.81000000e+00  1.80620339e+00  1.81000000e+00  5.76512010e-05 
 1.82000000e+00  1.81620510e+00  1.82000000e+00  5.76393196e-05 
 1.83000000e+00  1.82620680e+00  1.83000000e+00  5.76274944e-05 
 1.84000000e+00  1.83620847e+00  1.84000000e+00  5.76157227e-05 
 1.85000000e+00  1.84621013e+00  1.85000000e+00  5.76040016e-05 
 1.86000000e+00  1.85621177e+00  1.86000000e+00  5.75923284e-05 
 1.87000000e+00  1.86621339e+00  1.87000000e+00  5.75807005e-05 
 1.88000000e+00  1.87621499e+00  1.88000000e+00  5.75691153e-05 
 1.89000000e+00  1.88621658e+00  1.89000000e+00  5.75575702e-05 
 1.90000000e+00  1.89621815e+00  1.90000000e+00  5.75460628e-05 
 1.91000000e+00  1.90621970e+00  1.91000000e+00  5.75345905e-05 
 1.92000000e+00  1.91622124e+00  1.92000000e+00  5.75231511e-05 
 1.93000000e+00  1.92622276e+00  1.93000000e+00  5.75117422e-05 
 1.94000000e+00  1.93622427e+00  1.94000000e+00  5.75003616e-05 
 1.95000000e+00  1.94622576e+00  1.95000000e+00  5.74890069e-05 
 1.96000000e+00  1.95622723e+00  1.96000000e+00  5.74776761e-05 
 1.97000000e+00  1.96622869e+00  1.97000000e+00  5.74663670e-05 
 1.98000000e+00  1.97623014e+00  1.98000000e+00  5.74550775e-05 
 1.99000000e+00  1.98623157e+00  1.99000000e+00  5.74438056e-05 
 2.00000000e+00  1.99623298e+00  2.00000000e+00  5.74325493e-05 
 2.01000000e+00  2.00623438e+00  2.01000000e+00  5.74213066e-05 
 2.02000000e+00  2.01623577e+00  2.02000000e+00  5.74100758e-05 
 2.03000000e+00  2.02623714e+00  2.03000000e+00  5.73988548e-05 
 2.04000000e+00  2.03623850e+00  2.04000000e+00  5.73876420e-05 
 2.05000000e+00  2.04623984e+00  2.05000000e+00  5.73764354e-05 
 2.06000000e+00  2.05624117e+00  2.06000000e+00  5.73652335e-05 
 2.07000000e+00  2.06624249e+00  2.07000000e+00  5.73540345e-05 
 2.08000000e+00  2.07624379e+00  2.08000000e+00  5.73428367e-05 
 2.09000000e+00  2.08624508e+00  2.09000000e+00  5.73316386e-05 
 2.10000000e+00  2.09624636e+00  2.10000000e+00  5.73204385e-05 
 2.11000000e+00  2.10624763e+00  2.11000000e+00  5.73092349e-05 
 2.12000000e+00  2.11624888e+00  2.12000000e+00  5.72980263e-05 
 2.13000000e+00  2.12625012e+00  2.13000000e+00  5.72868112e-05 
 2.14000000e+00  2.13625135e+00  2.14000000e+00  5.72755882e-05 
 2.15000000e+00  2.14625257e+00  2.15000000e+00  5.72643559e-05 
 2.16000000e+00  2.15625377e+00  2.16000000e+00  5.72531128e-05 
 2.17000000e+00  2.16625496e+00  2.17000000e+00  5.72418576e-05 
 2.18000000e+00  2.17625614e+00  2.18000000e+00  5.72305890e-05 
 2.19000000e+00  2.18625731e+00  2.19000000e+00  5.72193058e-05 
 2.20000000e+00  2.19625847e+00  2.20000000e+00  5.72080065e-05 
 2.21000000e+00  2.20625962e+00  2.21000000e+00  5.71966900e-05 
 2.22000000e+00  2.21626075e+00  2.22000000e+00  5.71853551e-05 
 2.23000000e+00  2.22626188e+00  2.23000000e+00  5.71740006e-05 
 2.24000000e+00  2.23626299e+00  2.24000000e+00  5.71626253e-05 
 2.25000000e+00  2.24626409e+00  2.25000000e+00  5.71512280e-05 
 2.26000000e+00  2.25626519e+00  2.26000000e+00  5.71398077e-05 
 2.27000000e+00  2.26626627e+00  2.27000000e+00  5.71283632e-05 
 2.28000000e+00  2.27626734e+00  2.28000000e+00  5.71168934e-05 
 2.29000000e+00  2.28626840e+00  2.29000000e+00  5.71053973e-05 
 2.30000000e+00  2.29626945e+00  2.30000000e+00  5.70938738e-05 
 2.31000000e+00  2.30627049e+00  2.31000000e+00  5.70823220e-05 
 2.32000000e+00  2.31627153e+00  2.32000000e+00  5.70707407e-05 
 2.33000000e+00  2.32627255e+00  2.33000000e+00  5.70591290e-05 
 2.34000000e+00  2.33627356e+00  2.34000000e+00  5.70474860e-05 
 2.35000000e+00  2.34627456e+00  2.35000000e+00  5.70358106e-05 
 2.36000000e+00  2.35627556e+00  2.36000000e+00  5.70241018e-05 
 2.37000000e+00  2.36627654e+00  2.37000000e+00  5.70123589e-05 
 2.38000000e+00  2.37627752e+00  2.38000000e+00  5.70005807e-05 
 2.39000000e+00  2.38627848e+00  2.39000000e+00  5.69887665e-05 
 2.40000000e+00  2.39627944e+00  2.40000000e+00  5.69769152e-05 
 2.41000000e+00  2.40628039e+00  2.41000000e+00  5.69650261e-05 
 2.42000000e+00  2.41628133e+00  2.42000000e+00  5.69530981e-05 
 2.43000000e+00  2.42628226e+00  2.43000000e+00  5.69411305e-05 
 2.44000000e+00  2.43628319e+00  2.44000000e+00  5.69291223e-05 
 2.45000000e+00  2.44628410e+00  2.45000000e+00  5.69170727e-05 
 2.46000000e+00  2.45628501e+00  2.46000000e+00  5.69049809e-05 
 2.47000000e+00  2.46628590e+00  2.47000000e+00  5.68928458e-05 
 2.48000000e+00  2.47628679e+00  2.48000000e+00  5.68806668e-05 
 2.49000000e+00  2.48628768e+00  2.49000000e+00  5.68684430e-05 
 2.50000000e+00  2.49628855e+00  2.50000000e+00  5.68561735e-05 
 2.51000000e+00  2.50628942e+00  2.51000000e+00  5.68438574e-05 
 2.52000000e+00  2.51629027e+00  2.52000000e+00  5.68314939e-05 
 2.53000000e+00  2.52629113e+00  2.53000000e+00  5.68190822e-05 
 2.54000000e+00  2.53629197e+00  2.54000000e+00  5.68066214e-05 
 2.55000000e+00  2.54629280e+00  2.55000000e+00  5.67941106e-05 
 2.56000000e+00  2.55629363e+00  2.56000000e+00  5.67815491e-05 
 2.57000000e+00  2.56629445e+00  2.57000000e+00  5.67689360e-05 
 2.58000000e+00  2.57629527e+00  2.58000000e+00  5.67562703e-05 
 2.59000000e+00  2.58629608e+00  2.59000000e+00  5.67435513e-05 
 2.60000000e+00  2.59629688e+00  2.60000000e+00  5.67307781e-05 
 2.61000000e+00  2.60629767e+00  2.61000000e+00  5.67179497e-05 
 2.62000000e+00  2.61629845e+00  2.62000000e+00  5.67050654e-05 
 2.63000000e+00  2.62629923e+00  2.63000000e+00  5.66921241e-05 
 2.64000000e+00  2.63630001e+00  2.64000000e+00  5.66791251e-05 
 2.65000000e+00  2.64630077e+00  2.65000000e+00  5.66660674e-05 
 2.66000000e+00  2.65630153e+00  2.66000000e+00  5.66529502e-05 
 2.67000000e+00  2.66630228e+00  2.67000000e+00  5.66397723e-05 
 2.68000000e+00  2.67630303e+00  2.68000000e+00  5.66265330e-05 
 2.69000000e+00  2.68630377e+00  2.69000000e+00  5.66132313e-05 
 2.70000000e+00  2.69630450e+00  2.70000000e+00  5.65998661e-05 
 2.71000000e+00  2.70630523e+00  2.71000000e+00  5.65864365e-05 
 2.72000000e+00  2.71630595e+00  2.72000000e+00  5.65729416e-05 
 2.73000000e+00  2.72630666e+00  2.73000000e+00  5.65593802e-05 
 2.74000000e+00  2.73630737e+00  2.74000000e+00  5.65457514e-05 
 2.75000000e+00  2.74630808e+00  2.75000000e+00  5.65320541e-05 
 2.76000000e+00  2.75630877e+00  2.76000000e+00  5.65182872e-05 
 2.77000000e+00  2.76630946e+00  2.77000000e+00  5.65044496e-05 
 2.78000000e+00  2.77631015e+00  2.78000000e+00  5.64905402e-05 
 2.79000000e+00  2.78631083e+00  2.79000000e+00  5.64765578e-05 
 2.80000000e+00  2.79631150e+00  2.80000000e+00  5.64625014e-05 
 2.81000000e+00  2.80631217e+00  2.81000000e+00  5.64483696e-05 
 2.82000000e+00  2.81631283e+00  2.82000000e+00  5.64341613e-05 
 2.83000000e+00  2.82631349e+00  2.83000000e+00  5.64198752e-05 
 2.84000000e+00  2.83631414e+00  2.84000000e+00  5.64055100e-05 
 2.85000000e+00  2.84631479e+00  2.85000000e+00  5.63910645e-05 
 2.86000000e+00  2.85631543e+00  2.86000000e+00  5.63765372e-05 
 2.87000000e+00  2.86631606e+00  2.87000000e+00  5.63619268e-05 
 2.88000000e+00  2.87631669e+00  2.88000000e+00  5.63472318e-05 
 2.89000000e+00  2.88631731e+00  2.89000000e+00  5.63324509e-05 
 2.90000000e+00  2.89631793e+00  2.90000000e+00  5.63175825e-05 
 2.91000000e+00  2.90631855e+00  2.91000000e+00  5.63026250e-05 
 2.92000000e+00  2.91631916e+00  2.92000000e+00  5.62875769e-05 
 2.93000000e+00  2.92631976e+00  2.93000000e+00  5.62724365e-05 
 2.94000000e+00  2.93632036e+00  2.94000000e+00  5.62572021e-05 
 2.95000000e+00  2.94632095e+00  2.95000000e+00  5.62418721e-05 
 2.96000000e+00  2.95632154e+00  2.96000000e+00  5.62264445e-05 
 2.97000000e+00  2.96632213e+00  2.97000000e+00  5.62109176e-05 
 2.98000000e+00  2.97632271e+00  2.98000000e+00  5.61952894e-05 
 2.99000000e+00  2.98632328e+00  2.99000000e+00  5.61795580e-05 
 3.00000000e+00  2.99632385e+00  3.00000000e+00  5.61637212e-05 
 3.01000000e+00  3.00632442e+00  3.01000000e+00  5.61477769e-05 
 3.02000000e+00  3.01632498e+00  3.02000000e+00  5.61317231e-05 
 3.03000000e+00  3.02632553e+00  3.03000000e+00  5.61155572e-05 
 3.04000000e+00  3.03632609e+00  3.04000000e+00  5.60992770e-05 
 3.05000000e+00  3.04632663e+00  3.05000000e+00  5.60828800e-05 
 3.06000000e+00  3.05632718e+00  3.06000000e+00  5.60663637e-05 
 3.07000000e+00  3.06632771e+00  3.07000000e+00  5.60497252e-05 
 3.08000000e+00  3.07632825e+00  3.08000000e+00  5.60329619e-05 
 3.09000000e+00  3.08632878e+00  3.09000000e+00  5.60160707e-05 
 3.10000000e+00  3.09632930e+00  3.10000000e+00  5.59990487e-05 
 3.11000000e+00  3.10632982e+00  3.11000000e+00  5.59818926e-05 
 3.12000000e+00  3.11633034e+00  3.12000000e+00  5.59645991e-05 
 3.13000000e+00  3.12633085e+00  3.13000000e+00  5.59471646e-05 
 3.14000000e+00  3.13633136e+00  3.14000000e+00  5.59295854e-05 
 3.15000000e+00  3.14633187e+00  3.15000000e+00  5.59118577e-05 
 3.16000000e+00  3.15633237e+00  3.16000000e+00  5.58939773e-05 
 3.17000000e+00  3.16633286e+00  3.17000000e+00  5.58759398e-05 
 3.18000000e+00  3.17633336e+00  3.18000000e+00  5.58577406e-05 
 3.19000000e+00  3.18633385e+00  3.19000000e+00  5.58393748e-05 
 3.20000000e+00  3.19633433e+00  3.20000000e+00  5.58208373e-05 
 3.21000000e+00  3.20633482e+00  3.21000000e+00  5.58021224e-05 
 3.22000000e+00  3.21633530e+00  3.22000000e+00  5.57832242e-05 
 3.23000000e+00  3.22633577e+00  3.23000000e+00  5.57641363e-05 
 3.24000000e+00  3.23633625e+00  3.24000000e+00  5.57448519e-05 
 3.25000000e+00  3.24633672e+00  3.25000000e+00  5.57253636e-05 
 3.26000000e+00  3.25633719e+00  3.26000000e+00  5.57056635e-05 
 3.27000000e+00  3.26633766e+00  3.27000000e+00  5.56857427e-05 
 3.28000000e+00  3.27633812e+00  3.28000000e+00  5.56655919e-05 
 3.29000000e+00  3.28633858e+00  3.29000000e+00  5.56452008e-05 
 3.30000000e+00  3.29633904e+00  3.30000000e+00  5.56245580e-05 
 3.31000000e+00  3.30633950e+00  3.31000000e+00  5.56036509e-05 
 3.32000000e+00  3.31633996e+00  3.32000000e+00  5.55824658e-05 
 3.33000000e+00  3.32634042e+00  3.33000000e+00  5.55609870e-05 
 3.34000000e+00  3.33634088e+00  3.34000000e+00  5.55391975e-05 
 3.35000000e+00  3.34634134e+00  3.35000000e+00  5.55170777e-05 
 3.36000000e+00  3.35634181e+00  3.36000000e+00  5.54946057e-05 
 3.37000000e+00  3.36634227e+00  3.37000000e+00  5.54717564e-05 
 3.38000000e+00  3.37634274e+00  3.38000000e+00  5.54485013e-05 
 3.39000000e+00  3.38634321e+00  3.39000000e+00  5.54248076e-05 
 3.40000000e+00  3.39634369e+00  3.40000000e+00  5.54006371e-05 
 3.41000000e+00  3.40634418e+00  3.41000000e+00  5.53759456e-05 
 3.42000000e+00  3.41634467e+00  3.42000000e+00  5.53506811e-05 
 3.43000000e+00  3.42634518e+00  3.43000000e+00  5.53247825e-05 
 3.44000000e+00  3.43634570e+00  3.44000000e+00  5.52981773e-05 
 3.45000000e+00  3.44634624e+00  3.45000000e+00  5.52707790e-05 
 3.46000000e+00  3.45634680e+00  3.46000000e+00  5.52424842e-05 
 3.47000000e+00  3.46634739e+00  3.47000000e+00  5.52131683e-05 
 3.48000000e+00  3.47634801e+00  3.48000000e+00  5.51826807e-05 
 3.49000000e+00  3.48634866e+00  3.49000000e+00  5.51508390e-05 
 3.50000000e+00  3.49634937e+00  3.50000000e+00  5.51174220e-05 
 3.51000000e+00  3.50635013e+00  3.51000000e+00  5.50821613e-05 
 3.52000000e+00  3.51635096e+00  3.52000000e+00  5.50447321e-05 
 3.53000000e+00  3.52635188e+00  3.53000000e+00  5.50047432e-05 
 3.54000000e+00  3.53635290e+00  3.54000000e+00  5.49617270e-05 
 3.55000000e+00  3.54635404e+00  3.55000000e+00  5.49151315e-05 
 3.56000000e+00  3.55635533e+00  3.56000000e+00  5.48643144e-05 
 3.57000000e+00  3.56635680e+00  3.57000000e+00  5.48085438e-05 
 3.58000000e+00  3.57635846e+00  3.58000000e+00  5.47470060e-05 
 3.59000000e+00  3.58636037e+00  3.59000000e+00  5.46788226e-05 
 3.60000000e+00  3.59636253e+00  3.60000000e+00  5.46030777e-05 
 3.61000000e+00  3.60636499e+00  3.61000000e+00  5.45188516e-05 
 3.62000000e+00  3.61636778e+00  3.62000000e+00  5.44252598e-05 
 3.63000000e+00  3.62637090e+00  3.63000000e+00  5.43214887e-05 
 3.64000000e+00  3.63637439e+00  3.64000000e+00  5.42068265e-05 
 3.65000000e+00  3.64637823e+00  3.65000000e+00  5.40806840e-05 
 3.66000000e+00  3.65638245e+00  3.66000000e+00  5.39426045e-05 
 3.67000000e+00  3.66638702e+00  3.67000000e+00  5.37922644e-05 
 3.68000000e+00  3.67639194e+00  3.68000000e+00  5.36294666e-05 
 3.69000000e+00  3.68639718e+00  3.69000000e+00  5.34541289e-05 
 3.70000000e+00  3.69640270e+00  3.70000000e+00  5.32662709e-05 
 3.71000000e+00  3.70640848e+00  3.71000000e+00  5.30660003e-05 
 3.72000000e+00  3.71641447e+00  3.72000000e+00  5.28535006e-05 
 3.73000000e+00  3.72642062e+00  3.73000000e+00  5.26290198e-05 
 3.74000000e+00  3.73642688e+00  3.74000000e+00  5.23928621e-05 
 3.75000000e+00  3.74643320e+00  3.75000000e+00  5.21453803e-05 
 3.76000000e+00  3.75643950e+00  3.76000000e+00  5.18869709e-05 
 3.77000000e+00  3.76644572e+00  3.77000000e+00  5.16180701e-05 
 3.78000000e+00  3.77645178e+00  3.78000000e+00  5.13391514e-05 
 3.79000000e+00  3.78645760e+00  3.79000000e+00  5.10507243e-05 
 3.80000000e+00  3.79646310e+00  3.80000000e+00  5.07533335e-05 
 3.81000000e+00  3.80646818e+00  3.81000000e+00  5.04475593e-05 
 3.82000000e+00  3.81647276e+00  3.82000000e+00  5.01340187e-05 
 3.83000000e+00  3.82647671e+00  3.83000000e+00  4.98133667e-05 
 3.84000000e+00  3.83647995e+00  3.84000000e+00  4.94862977e-05 
 3.85000000e+00  3.84648234e+00  3.85000000e+00  4.91535485e-05 
 3.86000000e+00  3.85648377e+00  3.86000000e+00  4.88158999e-05 
 3.87000000e+00  3.86648411e+00  3.87000000e+00  4.84741800e-05 
 3.88000000e+00  3.87648323e+00  3.88000000e+00  4.81292661e-05 
 3.89000000e+00  3.88648100e+00  3.89000000e+00  4.77820880e-05 
 3.90000000e+00  3.89647729e+00  3.90000000e+00  4.74336293e-05 
 3.91000000e+00  3.90647195e+00  3.91000000e+00  4.70849301e-05 
 3.92000000e+00  3.91646488e+00  3.92000000e+00  4.67370868e-05 
 3.93000000e+00  3.92645596e+00  3.93000000e+00  4.63912524e-05 
 3.94000000e+00  3.93644508e+00  3.94000000e+00  4.60486342e-05 
 3.95000000e+00  3.94643220e+00  3.95000000e+00  4.57104896e-05 
 3.96000000e+00  3.95641727e+00  3.96000000e+00  4.53781185e-05 
 3.97000000e+00  3.96640032e+00  3.97000000e+00  4.50528532e-05 
 3.98000000e+00  3.97638146e+00  3.98000000e+00  4.47360424e-05 
 3.99000000e+00  3.98636088e+00  3.99000000e+00  4.44290319e-05 
 4.00000000e+00  3.99633888e+00  4.00000000e+00  4.41331392e-05 
 4.01000000e+00  4.00631590e+00  4.01000000e+00  4.38496224e-05 
 4.02000000e+00  4.01629255e+00  4.02000000e+00  4.35796456e-05 
 4.03000000e+00  4.02626961e+00  4.03000000e+00  4.33242398e-05 
 4.04000000e+00  4.03624805e+00  4.04000000e+00  4.30842636e-05 
 4.05000000e+00  4.04622903e+00  4.05000000e+00  4.28603659e-05 
 4.06000000e+00  4.05621388e+00  4.06000000e+00  4.26529548e-05 
 4.07000000e+00  4.06620407e+00  4.07000000e+00  4.24621758e-05 
 4.08000000e+00  4.07620111e+00  4.08000000e+00  4.22879044e-05 
 4.09000000e+00  4.08620651e+00  4.09000000e+00  4.21297519e-05 
 4.10000000e+00  4.09622166e+00  4.10000000e+00  4.19870881e-05 
 4.11000000e+00  4.10624771e+00  4.11000000e+00  4.18590760e-05 
 4.12000000e+00  4.11628549e+00  4.12000000e+00  4.17447157e-05 
 4.13000000e+00  4.12633543e+00  4.13000000e+00  4.16428936e-05 
 4.14000000e+00  4.13639747e+00  4.14000000e+00  4.15524316e-05 
 4.15000000e+00  4.14647113e+00  4.15000000e+00  4.14721316e-05 
 4.16000000e+00  4.15655546e+00  4.16000000e+00  4.14008146e-05 
 4.17000000e+00  4.16664916e+00  4.17000000e+00  4.13373505e-05 
 4.18000000e+00  4.17675067e+00  4.18000000e+00  4.12806803e-05 
 4.19000000e+00  4.18685832e+00  4.19000000e+00  4.12298305e-05 
 4.20000000e+00  4.19697039e+00  4.20000000e+00  4.11839201e-05 
 4.21000000e+00  4.20708529e+00  4.21000000e+00  4.11421628e-05 
 4.22000000e+00  4.21720162e+00  4.22000000e+00  4.11038655e-05 
 4.23000000e+00  4.22731826e+00  4.23000000e+00  4.10684227e-05 
 4.24000000e+00  4.23743435e+00  4.24000000e+00  4.10353105e-05 
 4.25000000e+00  4.24754934e+00  4.25000000e+00  4.10040785e-05 
 4.26000000e+00  4.25766293e+00  4.26000000e+00  4.09743415e-05 
 4.27000000e+00  4.26777506e+00  4.27000000e+00  4.09457721e-05 
 4.28000000e+00  4.27788588e+00  4.28000000e+00  4.09180921e-05 
 4.29000000e+00  4.28799567e+00  4.29000000e+00  4.08910661e-05 
 4.30000000e+00  4.29810483e+00  4.30000000e+00  4.08644944e-05 
 4.31000000e+00  4.30821389e+00  4.31000000e+00  4.08382073e-05 
 4.32000000e+00  4.31832342e+00  4.32000000e+00  4.08120599e-05 
 4.33000000e+00  4.32843414e+00  4.33000000e+00  4.07859275e-05 
 4.34000000e+00  4.33854682e+00  4.34000000e+00  4.07597013e-05 
 4.35000000e+00  4.34866239e+00  4.35000000e+00  4.07332854e-05 
 4.36000000e+00  4.35878190e+00  4.36000000e+00  4.07065930e-05 
 4.37000000e+00  4.36890665e+00  4.37000000e+00  4.06795439e-05 
 4.38000000e+00  4.37903818e+00  4.38000000e+00  4.06520617e-05 
 4.39000000e+00  4.38917840e+00  4.39000000e+00  4.06240714e-05 
 4.40000000e+00  4.39932957e+00  4.40000000e+00  4.05954970e-05 
 4.41000000e+00  4.40949471e+00  4.41000000e+00  4.05662581e-05 
 4.42000000e+00  4.41967742e+00  4.42000000e+00  4.05362683e-05 
 4.43000000e+00  4.42988211e+00  4.43000000e+00  4.05054316e-05 
 4.44000000e+00  4.44011507e+00  4.44000000e+00  4.04736358e-05 
 4.45000000e+00  4.45038301e+00  4.45000000e+00  4.04407536e-05 
 4.46000000e+00  4.46069638e+00  4.46000000e+00  4.04066264e-05 
 4.47000000e+00  4.47106536e+00  4.47000000e+00  4.03710723e-05 
 4.48000000e+00  4.48150805e+00  4.48000000e+00  4.03338465e-05 
 4.49000000e+00  4.49203375e+00  4.49000000e+00  4.02947010e-05 
 4.50000000e+00  4.50267682e+00  4.50000000e+00  4.02532223e-05 
 4.51000000e+00  4.51346226e+00  4.51000000e+00  4.02089625e-05 
 4.52000000e+00  4.52442559e+00  4.52000000e+00  4.01613271e-05 
 4.53000000e+00  4.53562983e+00  4.53000000e+00  4.01094298e-05 
 4.54000000e+00  4.54760488e+00  4.54000000e+00  4.00487851e-05 
 4.55000000e+00  4.55977832e+00  4.55000000e+00  3.99819426e-05 
 4.56000000e+00  4.57261728e+00  4.56000000e+00  3.99038327e-05 
 4.57000000e+00  4.58629590e+00  4.57000000e+00  3.98102042e-05 
 4.58000000e+00  4.60017505e+00  4.58000000e+00  3.97047113e-05 
 4.59000000e+00  4.61888703e+00  4.59000000e+00  3.95235581e-05 
 4.60000000e+00  4.64175786e+00  4.60000000e+00  3.92348429e-05 
 4.61000000e+00  4.67420621e+00  4.61000000e+00  3.86483027e-05 
 4.62000000e+00  4.77094252e+00  4.62000000e+00  3.48565584e-05 
 4.63000000e+00  4.99529052e+00  4.63000000e+00  1.03335761e-05 
 4.64000000e+00  4.99932900e+00  4.64000000e+00  9.67886852e-06 
 4.65000000e+00  4.99984376e+00  4.65000000e+00  9.59479374e-06 
 4.66000000e+00  4.99994901e+00  4.66000000e+00  9.57759799e-06 
 4.67000000e+00  4.99997836e+00  4.67000000e+00  9.57280245e-06 
 4.68000000e+00  4.99998874e+00  4.68000000e+00  9.57110716e-06 
 4.69000000e+00  4.99999314e+00  4.69000000e+00  9.57038808e-06 
 4.70000000e+00  4.99999528e+00  4.70000000e+00  9.57003758e-06 
 4.71000000e+00  4.99999644e+00  4.71000000e+00  9.56984781e-06 
 4.72000000e+00  4.99999712e+00  4.72000000e+00  9.56973671e-06 
 4.73000000e+00  4.99999754e+00  4.73000000e+00  9.56966791e-06 
 4.74000000e+00  4.99999781e+00  4.74000000e+00  9.56962369e-06 
 4.75000000e+00  4.99999799e+00  4.75000000e+00  9.56959471e-06 
 4.76000000e+00  4.99999810e+00  4.76000000e+00  9.56957572e-06 
 4.77000000e+00  4.99999818e+00  4.77000000e+00  9.56956360e-06 
 4.78000000e+00  4.99999822e+00  4.78000000e+00  9.56955642e-06 
 4.79000000e+00  4.99999824e+00  4.79000000e+00  9.56955293e-06 
 4.80000000e+00  4.99999825e+00  4.80000000e+00  9.56955231e-06 
 4.81000000e+00  4.99999824e+00  4.81000000e+00  9.56955400e-06 
 4.82000000e+00  4.99999822e+00  4.82000000e+00  9.56955759e-06 
 4.83000000e+00  4.99999818e+00  4.83000000e+00  9.56956283e-06 
 4.84000000e+00  4.99999814e+00  4.84000000e+00  9.56956951e-06 
 4.85000000e+00  4.99999809e+00  4.85000000e+00  9.56957750e-06 
 4.86000000e+00  4.99999804e+00  4.86000000e+00  9.56958673e-06 
 4.87000000e+00  4.99999797e+00  4.87000000e+00  9.56959713e-06 
 4.88000000e+00  4.99999790e+00  4.88000000e+00  9.56960867e-06 
 4.89000000e+00  4.99999783e+00  4.89000000e+00  9.56962136e-06 
 4.90000000e+00  4.99999774e+00  4.90000000e+00  9.56963519e-06 
 4.91000000e+00  4.99999765e+00  4.91000000e+00  9.56965020e-06 
 4.92000000e+00  4.99999755e+00  4.92000000e+00  9.56966643e-06 
 4.93000000e+00  4.99999744e+00  4.93000000e+00  9.56968392e-06 
 4.94000000e+00  4.99999733e+00  4.94000000e+00  9.56970275e-06 
 4.95000000e+00  4.99999720e+00  4.95000000e+00  9.56972298e-06 
 4.96000000e+00  4.99999707e+00  4.96000000e+00  9.56974470e-06 
 4.97000000e+00  4.99999693e+00  4.97000000e+00  9.56976802e-06 
 4.98000000e+00  4.99999678e+00  4.98000000e+00  9.56979303e-06 
 4.99000000e+00  4.99999661e+00  4.99000000e+00  9.56981986e-06 
 5.00000000e+00  4.99999644e+00  5.00000000e+00  9.56984864e-06 
