 0.00000000e+00  1.06783453e-01  0.00000000e+00  7.75771727e-05 
 1.00000000e-02  1.08083552e-01  1.00000000e-02  7.75767147e-05 
 2.00000000e-02  1.09514713e-01  2.00000000e-02  7.75762093e-05 
 3.00000000e-02  1.11096070e-01  3.00000000e-02  7.75756492e-05 
 4.00000000e-02  1.12850257e-01  4.00000000e-02  7.75750261e-05 
 5.00000000e-02  1.14804096e-01  5.00000000e-02  7.75743297e-05 
 6.00000000e-02  1.16989373e-01  6.00000000e-02  7.75735478e-05 
 7.00000000e-02  1.19443678e-01  7.00000000e-02  7.75726658e-05 
 8.00000000e-02  1.22211204e-01  8.00000000e-02  7.75716663e-05 
 9.00000000e-02  1.25343344e-01  9.00000000e-02  7.75705287e-05 
 1.00000000e-01  1.28898721e-01  1.00000000e-01  7.75692290e-05 
 1.10000000e-01  1.32942123e-01  1.10000000e-01  7.75677398e-05 
 1.20000000e-01  1.37541527e-01  1.20000000e-01  7.75660312e-05 
 1.30000000e-01  1.42762320e-01  1.30000000e-01  7.75640724e-05 
 1.40000000e-01  1.48658185e-01  1.40000000e-01  7.75618349e-05 
 1.50000000e-01  1.55259465e-01  1.50000000e-01  7.75592968e-05 
 1.60000000e-01  1.62562094e-01  1.60000000e-01  7.75564472e-05 
 1.70000000e-01  1.70522178e-01  1.70000000e-01  7.75532894e-05 
 1.80000000e-01  1.79060402e-01  1.80000000e-01  7.75498406e-05 
 1.90000000e-01  1.88075720e-01  1.90000000e-01  7.75461275e-05 
 2.00000000e-01  1.97462513e-01  2.00000000e-01  7.75421812e-05 
 2.10000000e-01  2.07124429e-01  2.10000000e-01  7.75380316e-05 
 2.20000000e-01  2.16981610e-01  2.20000000e-01  7.75337046e-05 
 2.30000000e-01  2.26972095e-01  2.30000000e-01  7.75292213e-05 
 2.40000000e-01  2.37049865e-01  2.40000000e-01  7.75245983e-05 
 2.50000000e-01  2.47181726e-01  2.50000000e-01  7.75198482e-05 
 2.60000000e-01  2.57344233e-01  2.60000000e-01  7.75149809e-05 
 2.70000000e-01  2.67521140e-01  2.70000000e-01  7.75100044e-05 
 2.80000000e-01  2.77701431e-01  2.80000000e-01  7.75049249e-05 
 2.90000000e-01  2.87877855e-01  2.90000000e-01  7.74997476e-05 
 3.00000000e-01  2.98045852e-01  3.00000000e-01  7.74944767e-05 
 3.10000000e-01  3.08202766e-01  3.10000000e-01  7.74891158e-05 
 3.20000000e-01  3.18347272e-01  3.20000000e-01  7.74836678e-05 
 3.30000000e-01  3.28478953e-01  3.30000000e-01  7.74781352e-05 
 3.40000000e-01  3.38597993e-01  3.40000000e-01  7.74725198e-05 
 3.50000000e-01  3.48704960e-01  3.50000000e-01  7.74668232e-05 
 3.60000000e-01  3.58800643e-01  3.60000000e-01  7.74610462e-05 
 3.70000000e-01  3.68878685e-01  3.70000000e-01  7.74551923e-05 
 3.80000000e-01  3.78961937e-01  3.80000000e-01  7.74492538e-05 
 3.90000000e-01  3.89029176e-01  3.90000000e-01  7.74432387e-05 
 4.00000000e-01  3.99088919e-01  4.00000000e-01  7.74371438e-05 
 4.10000000e-01  4.09141873e-01  4.10000000e-01  7.74309686e-05 
 4.20000000e-01  4.19188797e-01  4.20000000e-01  7.74247120e-05 
 4.30000000e-01  4.29230380e-01  4.30000000e-01  7.74183731e-05 
 4.40000000e-01  4.39267236e-01  4.40000000e-01  7.74119501e-05 
 4.50000000e-01  4.49299918e-01  4.50000000e-01  7.74054415e-05 
 4.60000000e-01  4.59328910e-01  4.60000000e-01  7.73988454e-05 
 4.70000000e-01  4.69354645e-01  4.70000000e-01  7.73921594e-05 
 4.80000000e-01  4.79377500e-01  4.80000000e-01  7.73853812e-05 
 4.90000000e-01  4.89397810e-01  4.90000000e-01  7.73785080e-05 
 5.00000000e-01  4.99415867e-01  5.00000000e-01  7.73715369e-05 
 5.10000000e-01  5.09431930e-01  5.10000000e-01  7.73644646e-05 
 5.20000000e-01  5.19446223e-01  5.20000000e-01  7.73572876e-05 
 5.30000000e-01  5.29458945e-01  5.30000000e-01  7.73500022e-05 
 5.40000000e-01  5.39470271e-01  5.40000000e-01  7.73426041e-05 
 5.50000000e-01  5.49480355e-01  5.50000000e-01  7.73350888e-05 
 5.60000000e-01  5.59489330e-01  5.60000000e-01  7.73274514e-05 
 5.70000000e-01  5.69497318e-01  5.70000000e-01  7.73196867e-05 
 5.80000000e-01  5.79504421e-01  5.80000000e-01  7.73117889e-05 
 5.90000000e-01  5.89510735e-01  5.90000000e-01  7.73037517e-05 
 6.00000000e-01  5.99516341e-01  6.00000000e-01  7.72955683e-05 
 6.10000000e-01  6.09521312e-01  6.10000000e-01  7.72872313e-05 
 6.20000000e-01  6.19525713e-01  6.20000000e-01  7.72787325e-05 
 6.30000000e-01  6.29529602e-01  6.30000000e-01  7.72700630e-05 
 6.40000000e-01  6.39533031e-01  6.40000000e-01  7.72612131e-05 
 6.50000000e-01  6.49536046e-01  6.50000000e-01  7.72521719e-05 
 6.60000000e-01  6.59538689e-01  6.60000000e-01  7.72429276e-05 
 6.70000000e-01  6.69540996e-01  6.70000000e-01  7.72334669e-05 
 6.80000000e-01  6.79543001e-01  6.80000000e-01  7.72237752e-05 
 6.90000000e-01  6.89544735e-01  6.90000000e-01  7.72138361e-05 
 7.00000000e-01  6.99546224e-01  7.00000000e-01  7.72036314e-05 
 7.10000000e-01  7.09547495e-01  7.10000000e-01  7.71931404e-05 
 7.20000000e-01  7.19548571e-01  7.20000000e-01  7.71823399e-05 
 7.30000000e-01  7.29549472e-01  7.30000000e-01  7.71712036e-05 
 7.40000000e-01  7.39550218e-01  7.40000000e-01  7.71597014e-05 
 7.50000000e-01  7.49550828e-01  7.50000000e-01  7.71477992e-05 
 7.60000000e-01  7.59551319e-01  7.60000000e-01  7.71354575e-05 
 7.70000000e-01  7.69551708e-01  7.70000000e-01  7.71226308e-05 
 7.80000000e-01  7.79552011e-01  7.80000000e-01  7.71092661e-05 
 7.90000000e-01  7.89552245e-01  7.90000000e-01  7.70953016e-05 
 8.00000000e-01  7.99552423e-01  8.00000000e-01  7.70806648e-05 
 8.10000000e-01  8.09552564e-01  8.10000000e-01  7.70652697e-05 
 8.20000000e-01  8.19552685e-01  8.20000000e-01  7.70490145e-05 
 8.30000000e-01  8.29552802e-01  8.30000000e-01  7.70317769e-05 
 8.40000000e-01  8.39552936e-01  8.40000000e-01  7.70134103e-05 
 8.50000000e-01  8.49553108e-01  8.50000000e-01  7.69937365e-05 
 8.60000000e-01  8.59553739e-01  8.60000000e-01  7.70292238e-05 
 8.70000000e-01  8.69553673e-01  8.70000000e-01  7.69495520e-05 
 8.80000000e-01  8.79554127e-01  8.80000000e-01  7.69244488e-05 
 8.90000000e-01  8.89554749e-01  8.90000000e-01  7.68968245e-05 
 9.00000000e-01  8.99555587e-01  9.00000000e-01  7.68661771e-05 
 9.10000000e-01  9.09556700e-01  9.10000000e-01  7.68318820e-05 
 9.20000000e-01  9.19558163e-01  9.20000000e-01  7.67931623e-05 
 9.30000000e-01  9.29560065e-01  9.30000000e-01  7.67490550e-05 
 9.40000000e-01  9.39562517e-01  9.40000000e-01  7.66983729e-05 
 9.50000000e-01  9.49565657e-01  9.50000000e-01  7.66409283e-05 
 9.60000000e-01  9.59569650e-01  9.60000000e-01  7.65755878e-05 
 9.70000000e-01  9.69574661e-01  9.70000000e-01  7.64953405e-05 
 9.80000000e-01  9.79580907e-01  9.80000000e-01  7.63965649e-05 
 9.90000000e-01  9.89588657e-01  9.90000000e-01  7.62855197e-05 
 1.00000000e+00  9.99598148e-01  1.00000000e+00  7.61551416e-05 
 1.01000000e+00  1.00960964e+00  1.01000000e+00  7.60027867e-05 
 1.02000000e+00  1.01962337e+00  1.02000000e+00  7.58259984e-05 
 1.03000000e+00  1.02963957e+00  1.03000000e+00  7.56226634e-05 
 1.04000000e+00  1.03965843e+00  1.04000000e+00  7.53911305e-05 
 1.05000000e+00  1.04968011e+00  1.05000000e+00  7.51302769e-05 
 1.06000000e+00  1.05970472e+00  1.06000000e+00  7.48395183e-05 
 1.07000000e+00  1.06973236e+00  1.07000000e+00  7.45187759e-05 
 1.08000000e+00  1.07976307e+00  1.08000000e+00  7.41684143e-05 
 1.09000000e+00  1.08979690e+00  1.09000000e+00  7.37891694e-05 
 1.10000000e+00  1.09983392e+00  1.10000000e+00  7.33861499e-05 
 1.11000000e+00  1.10987413e+00  1.11000000e+00  7.29569060e-05 
 1.12000000e+00  1.11991733e+00  1.12000000e+00  7.24896039e-05 
 1.13000000e+00  1.12996390e+00  1.13000000e+00  7.20111741e-05 
 1.14000000e+00  1.14001356e+00  1.14000000e+00  7.15030896e-05 
 1.15000000e+00  1.15006652e+00  1.15000000e+00  7.09788548e-05 
 1.16000000e+00  1.16012277e+00  1.16000000e+00  7.04364109e-05 
 1.17000000e+00  1.17018244e+00  1.17000000e+00  6.98813690e-05 
 1.18000000e+00  1.18024534e+00  1.18000000e+00  6.93045578e-05 
 1.19000000e+00  1.19031180e+00  1.19000000e+00  6.87190921e-05 
 1.20000000e+00  1.20038190e+00  1.20000000e+00  6.81256130e-05 
 1.21000000e+00  1.21045556e+00  1.21000000e+00  6.75192306e-05 
 1.22000000e+00  1.22053321e+00  1.22000000e+00  6.69124983e-05 
 1.23000000e+00  1.23061462e+00  1.23000000e+00  6.62947225e-05 
 1.24000000e+00  1.24070040e+00  1.24000000e+00  6.56819907e-05 
 1.25000000e+00  1.25079030e+00  1.25000000e+00  6.50626829e-05 
 1.26000000e+00  1.26088488e+00  1.26000000e+00  6.44492845e-05 
 1.27000000e+00  1.27098434e+00  1.27000000e+00  6.38427266e-05 
 1.28000000e+00  1.28108874e+00  1.28000000e+00  6.32394219e-05 
 1.29000000e+00  1.29119852e+00  1.29000000e+00  6.26459058e-05 
 1.30000000e+00  1.30131412e+00  1.30000000e+00  6.20675576e-05 
 1.31000000e+00  1.31143542e+00  1.31000000e+00  6.14959525e-05 
 1.32000000e+00  1.32156328e+00  1.32000000e+00  6.09461177e-05 
 1.33000000e+00  1.33169777e+00  1.33000000e+00  6.04069979e-05 
 1.34000000e+00  1.34183867e+00  1.34000000e+00  5.98900334e-05 
 1.35000000e+00  1.35198703e+00  1.35000000e+00  5.93935400e-05 
 1.36000000e+00  1.36214273e+00  1.36000000e+00  5.89188602e-05 
 1.37000000e+00  1.37230591e+00  1.37000000e+00  5.84670598e-05 
 1.38000000e+00  1.38280384e+00  1.38000000e+00  5.80342767e-05 
 1.39000000e+00  1.39273711e+00  1.39000000e+00  5.76359966e-05 
 1.40000000e+00  1.40286099e+00  1.40000000e+00  5.72577084e-05 
 1.41000000e+00  1.41303368e+00  1.41000000e+00  5.69014247e-05 
 1.42000000e+00  1.42326245e+00  1.42000000e+00  5.65668968e-05 
 1.43000000e+00  1.43260423e+00  1.43000000e+00  5.62583228e-05 
 1.44000000e+00  1.44363807e+00  1.44000000e+00  5.59582769e-05 
 1.45000000e+00  1.45384733e+00  1.45000000e+00  5.56816923e-05 
 1.46000000e+00  1.46405788e+00  1.46000000e+00  5.54186880e-05 
 1.47000000e+00  1.47426826e+00  1.47000000e+00  5.51654069e-05 
 1.48000000e+00  1.48447698e+00  1.48000000e+00  5.49172236e-05 
 1.49000000e+00  1.49468261e+00  1.49000000e+00  5.46686518e-05 
 1.50000000e+00  1.50488381e+00  1.50000000e+00  5.44132515e-05 
 1.51000000e+00  1.51507941e+00  1.51000000e+00  5.41435592e-05 
 1.52000000e+00  1.52526844e+00  1.52000000e+00  5.38510771e-05 
 1.53000000e+00  1.53545011e+00  1.53000000e+00  5.35263620e-05 
 1.54000000e+00  1.54562388e+00  1.54000000e+00  5.31592441e-05 
 1.55000000e+00  1.55578940e+00  1.55000000e+00  5.27391734e-05 
 1.56000000e+00  1.56594654e+00  1.56000000e+00  5.22556531e-05 
 1.57000000e+00  1.57609532e+00  1.57000000e+00  5.16986817e-05 
 1.58000000e+00  1.58623588e+00  1.58000000e+00  5.10591230e-05 
 1.59000000e+00  1.59636847e+00  1.59000000e+00  5.03289468e-05 
 1.60000000e+00  1.60649338e+00  1.60000000e+00  4.95013269e-05 
 1.61000000e+00  1.61661086e+00  1.61000000e+00  4.85706186e-05 
 1.62000000e+00  1.62672115e+00  1.62000000e+00  4.75322568e-05 
 1.63000000e+00  1.63682437e+00  1.63000000e+00  4.63826150e-05 
 1.64000000e+00  1.64692052e+00  1.64000000e+00  4.51188576e-05 
 1.65000000e+00  1.65700946e+00  1.65000000e+00  4.37388034e-05 
 1.66000000e+00  1.66709087e+00  1.66000000e+00  4.22408109e-05 
 1.67000000e+00  1.67716420e+00  1.67000000e+00  4.06236883e-05 
 1.68000000e+00  1.68722865e+00  1.68000000e+00  3.88866283e-05 
 1.69000000e+00  1.69728312e+00  1.69000000e+00  3.70291694e-05 
 1.70000000e+00  1.70732604e+00  1.70000000e+00  3.50511842e-05 
 1.71000000e+00  1.71735525e+00  1.71000000e+00  3.29529029e-05 
 1.72000000e+00  1.72736768e+00  1.72000000e+00  3.07349870e-05 
 1.73000000e+00  1.73735882e+00  1.73000000e+00  2.83986874e-05 
 1.74000000e+00  1.74732173e+00  1.74000000e+00  2.59461650e-05 
 1.75000000e+00  1.75724502e+00  1.75000000e+00  2.33811579e-05 
 1.76000000e+00  1.76710830e+00  1.76000000e+00  2.07105016e-05 
 1.77000000e+00  1.77687009e+00  1.77000000e+00  1.79481556e-05 
 1.78000000e+00  1.78642630e+00  1.78000000e+00  1.51289586e-05 
 1.79000000e+00  1.79537313e+00  1.79000000e+00  1.23862263e-05 
 1.80000000e+00  1.79997977e+00  1.80000000e+00  1.09349825e-05 
